-0.245
-0.215
-0.185
-0.175
-0.170
-0.170
-0.185
-0.170
-0.160
-0.150
-0.170
-0.205
-0.220
-0.230
-0.210
-0.190
-0.175
-0.185
-0.190
-0.190
-0.200
-0.200
-0.210
-0.205
-0.215
-0.205
-0.225
-0.235
-0.225
-0.205
-0.210
-0.200
-0.200
-0.195
-0.185
-0.190
-0.215
-0.220
-0.195
-0.195
-0.220
-0.250
-0.220
-0.165
-0.150
-0.145
-0.185
-0.195
-0.195
-0.185
-0.170
-0.160
-0.160
-0.180
-0.205
-0.200
-0.165
-0.135
-0.130
-0.130
-0.130
-0.110
-0.065
-0.030
-0.040
-0.055
-0.055
-0.035
0.000
0.015
0.015
0.000
0.010
0.015
0.020
0.035
0.045
0.040
0.030
0.025
0.005
-0.005
-0.025
-0.050
-0.050
-0.045
-0.025
-0.020
-0.035
-0.065
-0.065
-0.075
-0.070
-0.085
-0.100
-0.140
-0.145
-0.140
-0.115
-0.095
-0.090
-0.100
-0.110
-0.125
-0.125
-0.110
-0.085
-0.095
-0.080
-0.065
-0.030
-0.040
-0.065
-0.110
-0.145
-0.145
-0.075
0.035
0.220
0.435
0.695
1.005
1.300
1.535
1.720
1.820
1.720
1.425
1.020
0.600
0.200
-0.095
-0.215
-0.190
-0.125
-0.105
-0.115
-0.130
-0.100
-0.075
-0.080
-0.110
-0.125
-0.155
-0.165
-0.170
-0.170
-0.170
-0.170
-0.185
-0.185
-0.200
-0.190
-0.175
-0.155
-0.140
-0.175
-0.175
-0.170
-0.150
-0.160
-0.165
-0.180
-0.190
-0.165
-0.140
-0.130
-0.150
-0.160
-0.145
-0.125
-0.115
-0.110
-0.115
-0.120
-0.115
-0.095
-0.085
-0.090
-0.090
-0.100
-0.095
-0.085
-0.065
-0.060
-0.070
-0.050
-0.045
-0.020
0.010
0.020
0.040
0.055
0.065
0.075
0.095
0.115
0.085
0.060
0.080
0.125
0.160
0.165
0.170
0.185
0.220
0.225
0.235
0.220
0.230
0.250
0.280
0.270
0.250
0.255
0.245
0.235
0.235
0.250
0.230
0.245
0.230
0.220
0.215
0.180
0.120
0.075
0.065
0.060
0.055
0.025
-0.005
-0.040
-0.085
-0.135
-0.145
-0.140
-0.120
-0.120
-0.160
-0.195
-0.200
-0.215
-0.200
-0.200
-0.215
-0.255
-0.270
-0.225
-0.225
-0.240
-0.250
-0.230
-0.190
-0.180
-0.200
-0.210
-0.215
-0.210
-0.210
-0.205
-0.225
-0.230
-0.240
-0.245
-0.230
-0.230
-0.210
-0.200
-0.185
-0.175
-0.175
-0.190
-0.190
-0.190
-0.200
-0.175
-0.130
-0.090
-0.095
-0.130
-0.170
-0.160
-0.135
-0.100
-0.090
-0.115
-0.115
-0.080
-0.040
-0.065
-0.105
-0.120
-0.120
-0.110
-0.105
-0.110
-0.150
-0.155
-0.160
-0.150
-0.165
-0.190
-0.215
-0.270
-0.320
-0.340
-0.320
-0.280
-0.285
-0.310
-0.360
-0.375
-0.340
-0.310
-0.310
-0.305
-0.320
-0.320
-0.350
-0.350
-0.325
-0.300
-0.320
-0.380
-0.395
-0.335
-0.275
-0.260
-0.290
-0.330
-0.335
-0.330
-0.325
-0.270
-0.145
0.045
0.280
0.535
0.830
1.105
1.335
1.500
1.510
1.270
0.865
0.410
0.000
-0.255
-0.330
-0.330
-0.315
-0.325
-0.320
-0.270
-0.260
-0.290
-0.335
-0.330
-0.345
-0.350
-0.335
-0.305
-0.300
-0.340
-0.360
-0.370
-0.380
-0.380
-0.370
-0.350
-0.325
-0.305
-0.295
-0.275
-0.305
-0.325
-0.345
-0.335
-0.335
-0.335
-0.360
-0.365
-0.350
-0.380
-0.410
-0.395
-0.385
-0.360
-0.340
-0.345
-0.325
-0.300
-0.295
-0.285
-0.290
-0.295
-0.285
-0.275
-0.275
-0.235
-0.225
-0.215
-0.190
-0.125
-0.055
-0.040
-0.065
-0.095
-0.125
-0.095
-0.095
-0.070
-0.045
-0.010
-0.020
-0.015
-0.010
-0.030
-0.025
0.005
0.065
0.100
0.110
0.060
-0.050
-0.130
-0.080
0.040
0.125
0.115
0.045
-0.020
-0.025
0.020
0.015
-0.070
-0.135
-0.165
-0.165
-0.100
-0.040
-0.085
-0.220
-0.440
-0.615
-0.660
-0.615
-0.550
-0.505
-0.480
-0.450
-0.395
-0.355
-0.320
-0.305
-0.320
-0.370
-0.510
-0.670
-0.725
-0.580
-0.395
-0.325
-0.370
-0.420
-0.470
-0.470
-0.435
-0.335
-0.180
-0.035
0.010
-0.135
-0.340
-0.495
-0.575
-0.560
-0.520
-0.505
-0.445
-0.360
-0.330
-0.380
-0.415
-0.410
-0.415
-0.460
-0.465
-0.410
-0.360
-0.330
-0.310
-0.300
-0.255
-0.215
-0.235
-0.340
-0.400
-0.385
-0.325
-0.275
-0.295
-0.365
-0.365
-0.325
-0.310
-0.335
-0.360
-0.370
-0.345
-0.330
-0.375
-0.425
-0.425
-0.425
-0.485
-0.610
-0.725
-0.780
-0.735
-0.665
-0.665
-0.720
-0.760
-0.735
-0.625
-0.545
-0.510
-0.535
-0.630
-0.730
-0.770
-0.725
-0.640
-0.580
-0.530
-0.525
-0.590
-0.680
-0.695
-0.595
-0.455
-0.315
-0.185
-0.035
0.160
0.425
0.770
1.115
1.385
1.590
1.660
1.510
1.185
0.780
0.330
-0.085
-0.350
-0.465
-0.535
-0.605
-0.650
-0.670
-0.685
-0.715
-0.750
-0.770
-0.755
-0.755
-0.750
-0.770
-0.775
-0.765
-0.740
-0.745
-0.770
-0.795
-0.815
-0.805
-0.800
-0.810
-0.815
-0.825
-0.800
-0.785
-0.755
-0.765
-0.755
-0.745
-0.735
-0.735
-0.785
-0.845
-0.850
-0.835
-0.795
-0.760
-0.745
-0.735
-0.725
-0.700
-0.685
-0.670
-0.710
-0.765
-0.790
-0.770
-0.740
-0.700
-0.685
-0.680
-0.670
-0.650
-0.640
-0.625
-0.605
-0.615
-0.605
-0.590
-0.570
-0.555
-0.565
-0.580
-0.570
-0.545
-0.505
-0.465
-0.445
-0.455
-0.445
-0.430
-0.415
-0.435
-0.440
-0.430
-0.390
-0.355
-0.315
-0.310
-0.330
-0.355
-0.390
-0.415
-0.440
-0.465
-0.495
-0.475
-0.475
-0.490
-0.490
-0.495
-0.500
-0.545
-0.600
-0.625
-0.625
-0.630
-0.635
-0.620
-0.605
-0.590
-0.590
-0.595
-0.615
-0.635
-0.645
-0.650
-0.650
-0.645
-0.650
-0.650
-0.645
-0.635
-0.620
-0.610
-0.620
-0.645
-0.650
-0.665
-0.660
-0.625
-0.620
-0.630
-0.640
-0.630
-0.610
-0.570
-0.545
-0.570
-0.560
-0.555
-0.525
-0.500
-0.485
-0.495
-0.510
-0.505
-0.475
-0.475
-0.490
-0.515
-0.510
-0.500
-0.490
-0.505
-0.530
-0.560
-0.565
-0.600
-0.615
-0.635
-0.645
-0.645
-0.665
-0.665
-0.650
-0.640
-0.650
-0.680
-0.695
-0.685
-0.650
-0.630
-0.645
-0.655
-0.675
-0.665
-0.660
-0.655
-0.650
-0.645
-0.650
-0.650
-0.645
-0.635
-0.625
-0.660
-0.690
-0.655
-0.565
-0.445
-0.290
-0.085
0.165
0.485
0.760
1.005
1.135
1.060
0.750
0.355
-0.055
-0.420
-0.610
-0.675
-0.680
-0.670
-0.660
-0.665
-0.645
-0.645
-0.655
-0.660
-0.650
-0.635
-0.660
-0.690
-0.710
-0.700
-0.665
-0.635
-0.645
-0.675
-0.690
-0.680
-0.655
-0.640
-0.630
-0.635
-0.645
-0.635
-0.635
-0.630
-0.635
-0.635
-0.635
-0.625
-0.600
-0.590
-0.580
-0.590
-0.605
-0.575
-0.565
-0.555
-0.555
-0.550
-0.550
-0.535
-0.535
-0.525
-0.515
-0.505
-0.505
-0.495
-0.485
-0.445
-0.415
-0.410
-0.415
-0.435
-0.400
-0.375
-0.365
-0.355
-0.355
-0.345
-0.300
-0.270
-0.225
-0.235
-0.260
-0.255
-0.235
-0.220
-0.195
-0.190
-0.200
-0.195
-0.175
-0.165
-0.170
-0.180
-0.170
-0.155
-0.155
-0.160
-0.175
-0.210
-0.255
-0.295
-0.320
-0.325
-0.345
-0.380
-0.415
-0.435
-0.425
-0.440
-0.470
-0.500
-0.525
-0.535
-0.530
-0.515
-0.515
-0.545
-0.565
-0.570
-0.565
-0.555
-0.550
-0.565
-0.575
-0.575
-0.555
-0.555
-0.535
-0.545
-0.565
-0.570
-0.555
-0.540
-0.550
-0.575
-0.555
-0.550
-0.520
-0.490
-0.500
-0.515
-0.515
-0.485
-0.435
-0.410
-0.415
-0.430
-0.430
-0.385
-0.360
-0.335
-0.325
-0.345
-0.370
-0.375
-0.355
-0.345
-0.350
-0.365
-0.390
-0.395
-0.400
-0.410
-0.430
-0.455
-0.500
-0.500
-0.485
-0.455
-0.470
-0.490
-0.505
-0.510
-0.525
-0.510
-0.525
-0.530
-0.540
-0.545
-0.525
-0.510
-0.550
-0.635
-0.710
-0.750
-0.755
-0.760
-0.785
-0.750
-0.690
-0.640
-0.590
-0.535
-0.485
-0.405
-0.295
-0.165
-0.020
0.190
0.460
0.725
0.995
1.180
1.255
1.145
0.895
0.550
0.215
-0.055
-0.260
-0.395
-0.475
-0.540
-0.575
-0.565
-0.530
-0.510
-0.535
-0.590
-0.635
-0.675
-0.725
-0.755
-0.770
-0.800
-0.780
-0.775
-0.790
-0.805
-0.840
-0.880
-0.925
-0.935
-0.940
-0.920
-0.895
-0.905
-0.915
-0.895
-0.830
-0.745
-0.695
-0.685
-0.690
-0.675
-0.640
-0.620
-0.620
-0.635
-0.650
-0.680
-0.685
-0.625
-0.530
-0.485
-0.445
-0.385
-0.320
-0.350
-0.400
-0.370
-0.355
-0.430
-0.540
-0.610
-0.515
-0.315
-0.230
-0.250
-0.245
-0.110
0.010
-0.030
-0.135
-0.135
-0.085
-0.030
-0.020
-0.040
-0.045
-0.020
0.015
0.085
0.105
0.110
0.140
0.200
0.230
0.240
0.205
0.155
0.115
0.075
0.045
0.005
-0.045
-0.115
-0.155
-0.195
-0.230
-0.230
-0.255
-0.285
-0.315
-0.355
-0.355
-0.355
-0.380
-0.405
-0.415
-0.415
-0.425
-0.420
-0.445
-0.450
-0.460
-0.445
-0.445
-0.405
-0.430
-0.455
-0.455
-0.445
-0.445
-0.420
-0.395
-0.410
-0.410
-0.385
-0.355
-0.330
-0.325
-0.350
-0.350
-0.305
-0.265
-0.225
-0.235
-0.270
-0.310
-0.345
-0.350
-0.350
-0.395
-0.420
-0.465
-0.510
-0.565
-0.620
-0.655
-0.695
-0.770
-0.810
-0.840
-0.835
-0.820
-0.790
-0.760
-0.745
-0.755
-0.755
-0.765
-0.780
-0.795
-0.795
-0.790
-0.775
-0.750
-0.720
-0.715
-0.685
-0.660
-0.605
-0.580
-0.570
-0.525
-0.505
-0.465
-0.430
-0.420
-0.355
-0.260
-0.100
0.140
0.380
0.640
0.885
1.125
1.360
1.495
1.405
1.085
0.660
0.275
0.025
-0.090
-0.100
-0.105
-0.120
-0.190
-0.225
-0.220
-0.200
-0.250
-0.330
-0.370
-0.355
-0.335
-0.315
-0.335
-0.380
-0.410
-0.400
-0.390
-0.375
-0.385
-0.430
-0.470
-0.475
-0.465
-0.460
-0.485
-0.530
-0.570
-0.610
-0.620
-0.590
-0.595
-0.595
-0.630
-0.635
-0.630
-0.615
-0.615
-0.630
-0.640
-0.610
-0.600
-0.575
-0.575
-0.590
-0.595
-0.585
-0.555
-0.530
-0.520
-0.525
-0.535
-0.535
-0.510
-0.475
-0.475
-0.485
-0.470
-0.455
-0.410
-0.375
-0.375
-0.380
-0.390
-0.360
-0.350
-0.325
-0.330
-0.325
-0.315
-0.280
-0.270
-0.280
-0.320
-0.365
-0.405
-0.400
-0.350
-0.325
-0.320
-0.355
-0.395
-0.415
-0.435
-0.440
-0.465
-0.500
-0.540
-0.565
-0.585
-0.590
-0.625
-0.640
-0.635
-0.610
-0.580
-0.565
-0.560
-0.565
-0.530
-0.485
-0.445
-0.405
-0.395
-0.395
-0.390
-0.370
-0.355
-0.320
-0.310
-0.290
-0.290
-0.305
-0.280
-0.280
-0.260
-0.260
-0.265
-0.255
-0.235
-0.190
-0.165
-0.155
-0.130
-0.090
-0.070
-0.035
0.000
0.010
-0.005
-0.015
-0.025
-0.035
-0.060
-0.100
-0.150
-0.180
-0.180
-0.180
-0.245
-0.330
-0.380
-0.425
-0.450
-0.450
-0.455
-0.485
-0.535
-0.540
-0.530
-0.490
-0.475
-0.485
-0.505
-0.515
-0.495
-0.475
-0.485
-0.510
-0.520
-0.505
-0.515
-0.520
-0.535
-0.545
-0.560
-0.570
-0.570
-0.605
-0.595
-0.535
-0.445
-0.295
-0.105
0.170
0.495
0.790
1.030
1.240
1.430
1.480
1.310
0.925
0.495
0.075
-0.255
-0.460
-0.570
-0.635
-0.685
-0.695
-0.675
-0.655
-0.650
-0.660
-0.665
-0.650
-0.625
-0.615
-0.620
-0.640
-0.650
-0.625
-0.595
-0.545
-0.535
-0.540
-0.530
-0.510
-0.510
-0.475
-0.465
-0.465
-0.470
-0.465
-0.450
-0.435
-0.415
-0.420
-0.420
-0.425
-0.430
-0.400
-0.395
-0.400
-0.380
-0.345
-0.305
-0.305
-0.335
-0.345
-0.365
-0.350
-0.320
-0.285
-0.295
-0.305
-0.350
-0.370
-0.360
-0.360
-0.380
-0.415
-0.410
-0.405
-0.430
-0.430
-0.455
-0.480
-0.470
-0.460
-0.430
-0.400
-0.395
-0.400
-0.405
-0.390
-0.365
-0.350
-0.320
-0.310
-0.310
-0.320
-0.320
-0.305
-0.310
-0.315
-0.325
-0.305
-0.270
-0.260
-0.255
-0.270
-0.285
-0.300
-0.350
-0.365
-0.385
-0.410
-0.440
-0.445
-0.425
-0.395
-0.380
-0.400
-0.425
-0.425
-0.415
-0.400
-0.395
-0.395
-0.365
-0.335
-0.335
-0.295
-0.265
-0.260
-0.240
-0.200
-0.175
-0.175
-0.170
-0.175
-0.185
-0.185
-0.190
-0.175
-0.170
-0.140
-0.070
0.005
0.035
0.045
0.000
-0.060
-0.070
-0.055
-0.065
-0.070
-0.095
-0.125
-0.140
-0.140
-0.130
-0.135
-0.145
-0.190
-0.200
-0.210
-0.205
-0.200
-0.205
-0.245
-0.260
-0.260
-0.235
-0.200
-0.215
-0.210
-0.225
-0.230
-0.210
-0.185
-0.165
-0.165
-0.170
-0.160
-0.165
-0.160
-0.160
-0.170
-0.205
-0.210
-0.220
-0.165
-0.095
-0.005
0.145
0.325
0.535
0.795
1.055
1.270
1.440
1.500
1.335
1.000
0.630
0.270
-0.010
-0.145
-0.170
-0.195
-0.250
-0.300
-0.310
-0.310
-0.320
-0.340
-0.365
-0.385
-0.400
-0.400
-0.375
-0.340
-0.310
-0.295
-0.305
-0.305
-0.285
-0.280
-0.280
-0.285
-0.290
-0.295
-0.275
-0.240
-0.230
-0.220
-0.215
-0.195
-0.130
-0.070
-0.040
-0.015
0.025
0.070
0.125
0.175
0.235
0.310
0.390
0.380
0.305
0.285
0.320
0.360
0.360
0.320
0.275
0.215
0.170
0.130
0.140
0.195
0.270
0.340
0.335
0.250
0.170
0.100
0.070
0.020
-0.025
-0.055
-0.050
-0.040
-0.060
-0.125
-0.120
-0.065
-0.020
0.000
0.025
0.065
0.075
0.035
0.000
0.005
0.005
0.035
0.025
0.000
-0.040
-0.080
-0.115
-0.130
-0.145
-0.135
-0.145
-0.160
-0.155
-0.150
-0.140
-0.140
-0.145
-0.140
-0.125
-0.130
-0.155
-0.215
-0.285
-0.325
-0.350
-0.345
-0.340
-0.345
-0.365
-0.370
-0.370
-0.350
-0.330
-0.345
-0.350
-0.345
-0.310
-0.285
-0.285
-0.290
-0.295
-0.305
-0.305
-0.285
-0.275
-0.280
-0.290
-0.285
-0.250
-0.220
-0.215
-0.195
-0.185
-0.160
-0.145
-0.145
-0.150
-0.170
-0.205
-0.200
-0.195
-0.175
-0.205
-0.260
-0.305
-0.335
-0.350
-0.360
-0.400
-0.435
-0.455
-0.450
-0.425
-0.440
-0.440
-0.455
-0.435
-0.400
-0.380
-0.390
-0.435
-0.450
-0.460
-0.490
-0.510
-0.510
-0.495
-0.490
-0.490
-0.490
-0.485
-0.475
-0.460
-0.465
-0.450
-0.390
-0.315
-0.210
-0.110
0.040
0.230
0.470
0.725
0.980
1.160
1.230
1.095
0.785
0.375
-0.010
-0.260
-0.375
-0.385
-0.390
-0.395
-0.395
-0.385
-0.380
-0.370
-0.380
-0.400
-0.380
-0.385
-0.390
-0.380
-0.350
-0.325
-0.305
-0.300
-0.315
-0.330
-0.335
-0.325
-0.320
-0.325
-0.340
-0.345
-0.345
-0.330
-0.320
-0.335
-0.375
-0.405
-0.430
-0.410
-0.375
-0.385
-0.410
-0.420
-0.440
-0.450
-0.475
-0.500
-0.530
-0.545
-0.545
-0.505
-0.470
-0.440
-0.425
-0.420
-0.430
-0.420
-0.400
-0.395
-0.420
-0.415
-0.410
-0.385
-0.355
-0.360
-0.355
-0.345
-0.340
-0.325
-0.315
-0.295
-0.300
-0.310
-0.315
-0.330
-0.325
-0.310
-0.300
-0.305
-0.310
-0.290
-0.280
-0.250
-0.215
-0.180
-0.150
-0.120
-0.125
-0.115
-0.170
-0.220
-0.260
-0.280
-0.260
-0.255
-0.300
-0.355
-0.405
-0.395
-0.420
-0.405
-0.430
-0.475
-0.505
-0.540
-0.555
-0.555
-0.565
-0.575
-0.605
-0.590
-0.585
-0.560
-0.545
-0.550
-0.560
-0.585
-0.630
-0.650
-0.660
-0.680
-0.690
-0.655
-0.590
-0.540
-0.515
-0.545
-0.550
-0.545
-0.535
-0.525
-0.530
-0.540
-0.540
-0.525
-0.515
-0.530
-0.540
-0.560
-0.555
-0.580
-0.580
-0.575
-0.590
-0.625
-0.655
-0.695
-0.690
-0.700
-0.720
-0.715
-0.695
-0.670
-0.640
-0.665
-0.725
-0.780
-0.760
-0.700
-0.670
-0.625
-0.625
-0.635
-0.685
-0.740
-0.760
-0.755
-0.755
-0.765
-0.760
-0.755
-0.740
-0.730
-0.710
-0.715
-0.745
-0.780
-0.795
-0.815
-0.790
-0.735
-0.625
-0.460
-0.225
0.065
0.340
0.560
0.730
0.780
0.620
0.270
-0.135
-0.510
-0.755
-0.830
-0.805
-0.805
-0.815
-0.820
-0.785
-0.715
-0.655
-0.640
-0.705
-0.785
-0.835
-0.830
-0.800
-0.810
-0.805
-0.850
-0.855
-0.850
-0.870
-0.905
-0.925
-0.955
-0.955
-0.955
-0.940
-0.945
-0.990
-1.020
-1.040
-1.050
-1.025
-1.025
-1.025
-1.005
-0.965
-0.920
-0.890
-0.900
-0.920
-0.935
-0.925
-0.880
-0.860
-0.880
-0.885
-0.880
-0.855
-0.830
-0.820
-0.805
-0.825
-0.835
-0.840
-0.800
-0.750
-0.705
-0.690
-0.710
-0.740
-0.755
-0.750
-0.725
-0.725
-0.720
-0.710
-0.680
-0.660
-0.665
-0.680
-0.675
-0.645
-0.625
-0.600
-0.585
-0.580
-0.605
-0.560
-0.545
-0.540
-0.535
-0.545
-0.550
-0.555
-0.540
-0.515
-0.530
-0.560
-0.575
-0.605
-0.610
-0.590
-0.590
-0.620
-0.650
-0.665
-0.665
-0.665
-0.715
-0.765
-0.800
-0.820
-0.810
-0.805
-0.815
-0.820
-0.845
-0.855
-0.845
-0.885
-0.900
-0.915
-0.940
-0.935
-0.900
-0.895
-0.895
-0.920
-0.925
-0.915
-0.890
-0.860
-0.855
-0.865
-0.890
-0.875
-0.820
-0.755
-0.740
-0.755
-0.790
-0.840
-0.870
-0.855
-0.850
-0.845
-0.865
-0.860
-0.845
-0.845
-0.890
-0.940
-0.980
-0.970
-0.950
-0.945
-0.945
-0.950
-0.940
-0.910
-0.890
-0.885
-0.900
-0.920
-0.930
-0.915
-0.880
-0.860
-0.850
-0.845
-0.835
-0.835
-0.850
-0.895
-0.880
-0.870
-0.840
-0.820
-0.820
-0.820
-0.810
-0.785
-0.670
-0.550
-0.375
-0.120
0.165
0.420
0.615
0.705
0.590
0.245
-0.205
-0.620
-0.945
-1.110
-1.140
-1.080
-1.005
-0.980
-0.980
-0.965
-0.960
-0.955
-0.945
-0.950
-0.970
-0.985
-0.970
-0.980
-1.010
-1.015
-1.025
-1.040
-1.045
-1.020
-0.975
-0.985
-0.975
-0.965
-0.955
-0.925
-0.930
-0.940
-0.930
-0.920
-0.915
-0.890
-0.850
-0.850
-0.860
-0.875
-0.850
-0.830
-0.835
-0.850
-0.875
-0.880
-0.875
-0.850
-0.850
-0.880
-0.895
-0.920
-0.910
-0.915
-0.935
-0.950
-0.950
-0.910
-0.865
-0.820
-0.810
-0.820
-0.835
-0.825
-0.785
-0.740
-0.730
-0.735
-0.765
-0.765
-0.725
-0.685
-0.665
-0.660
-0.670
-0.650
-0.625
-0.585
-0.575
-0.595
-0.605
-0.605
-0.590
-0.570
-0.560
-0.545
-0.545
-0.560
-0.590
-0.595
-0.605
-0.615
-0.615
-0.630
-0.625
-0.635
-0.670
-0.715
-0.740
-0.745
-0.735
-0.735
-0.750
-0.750
-0.750
-0.760
-0.730
-0.680
-0.675
-0.685
-0.705
-0.695
-0.665
-0.660
-0.675
-0.710
-0.705
-0.690
-0.670
-0.655
-0.615
-0.600
-0.590
-0.580
-0.540
-0.520
-0.515
-0.505
-0.510
-0.480
-0.440
-0.420
-0.435
-0.460
-0.470
-0.460
-0.425
-0.400
-0.395
-0.415
-0.435
-0.460
-0.455
-0.430
-0.445
-0.480
-0.520
-0.545
-0.540
-0.520
-0.520
-0.525
-0.525
-0.530
-0.525
-0.525
-0.515
-0.510
-0.540
-0.540
-0.545
-0.540
-0.550
-0.565
-0.570
-0.585
-0.560
-0.545
-0.525
-0.525
-0.545
-0.570
-0.580
-0.550
-0.465
-0.340
-0.210
-0.015
0.210
0.480
0.740
0.960
1.130
1.155
0.965
0.620
0.230
-0.090
-0.355
-0.470
-0.480
-0.450
-0.450
-0.470
-0.490
-0.465
-0.450
-0.440
-0.445
-0.470
-0.495
-0.510
-0.500
-0.485
-0.500
-0.515
-0.525
-0.510
-0.485
-0.455
-0.425
-0.440
-0.455
-0.460
-0.430
-0.410
-0.395
-0.410
-0.420
-0.395
-0.370
-0.360
-0.360
-0.365
-0.365
-0.350
-0.320
-0.290
-0.300
-0.305
-0.300
-0.265
-0.235
-0.220
-0.200
-0.185
-0.165
-0.145
-0.115
-0.080
-0.065
-0.085
-0.130
-0.140
-0.125
-0.085
-0.055
-0.080
-0.105
-0.135
-0.095
-0.050
-0.015
0.000
0.040
0.080
0.095
0.105
0.060
0.040
0.040
0.070
0.115
0.135
0.095
0.065
0.045
0.045
0.055
0.040
-0.005
-0.025
-0.055
-0.060
-0.075
-0.100
-0.120
-0.155
-0.205
-0.240
-0.260
-0.260
-0.260
-0.260
-0.265
-0.255
-0.265
-0.250
-0.260
-0.275
-0.295
-0.275
-0.245
-0.225
-0.215
-0.215
-0.240
-0.260
-0.255
-0.210
-0.200
-0.215
-0.245
-0.255
-0.225
-0.190
-0.175
-0.185
-0.190
-0.170
-0.105
-0.055
-0.040
-0.060
-0.085
-0.075
-0.025
0.020
0.045
0.025
-0.005
-0.020
-0.015
-0.005
-0.020
-0.055
-0.100
-0.115
-0.120
-0.105
-0.130
-0.165
-0.195
-0.200
-0.225
-0.250
-0.250
-0.280
-0.305
-0.305
-0.285
-0.245
-0.235
-0.260
-0.280
-0.285
-0.255
-0.230
-0.200
-0.205
-0.225
-0.265
-0.280
-0.265
-0.230
-0.135
-0.010
0.155
0.390
0.700
1.040
1.340
1.580
1.705
1.610
1.330
0.985
0.620
0.280
0.060
-0.015
-0.030
-0.060
-0.080
-0.075
-0.080
-0.040
-0.010
-0.020
-0.050
-0.085
-0.095
-0.105
-0.090
-0.065
-0.080
-0.090
-0.090
-0.080
-0.060
-0.050
-0.055
-0.030
-0.010
-0.010
0.005
0.020
0.020
0.015
0.010
0.020
0.045
0.060
0.065
0.065
0.060
0.070
0.090
0.085
0.070
0.105
0.165
0.190
0.205
0.175
0.165
0.185
0.200
0.220
0.250
0.275
0.290
0.280
0.270
0.290
0.320
0.330
0.315
0.330
0.325
0.360
0.380
0.390
0.380
0.375
0.365
0.370
0.395
0.425
0.445
0.430
0.445
0.470
0.495
0.510
0.505
0.460
0.470
0.500
0.540
0.560
0.560
0.565
0.525
0.525
0.555
0.570
0.560
0.525
0.485
0.460
0.465
0.460
0.455
0.435
0.410
0.390
0.400
0.395
0.375
0.330
0.310
0.305
0.320
0.300
0.295
0.285
0.290
0.330
0.345
0.360
0.365
0.380
0.390
0.400
0.415
0.420
0.415
0.420
0.440
0.475
0.530
0.550
0.520
0.465
0.465
0.490
0.520
0.525
0.495
0.465
0.450
0.455
0.460
0.460
0.405
0.345
0.325
0.345
0.360
0.365
0.355
0.340
0.320
0.335
0.335
0.350
0.325
0.310
0.310
0.315
0.355
0.360
0.340
0.295
0.295
0.325
0.360
0.350
0.280
0.205
0.165
0.205
0.325
0.445
0.630
0.850
1.130
1.475
1.785
1.960
1.905
1.640
1.310
1.010
0.735
0.515
0.415
0.395
0.405
0.425
0.430
0.445
0.435
0.420
0.410
0.415
0.440
0.440
0.415
0.385
0.360
0.350
0.375
0.370
0.345
0.315
0.310
0.325
0.360
0.345
0.320
0.310
0.315
0.325
0.365
0.365
0.340
0.310
0.320
0.345
0.380
0.390
0.395
0.385
0.410
0.420
0.445
0.455
0.445
0.430
0.435
0.455
0.470
0.455
0.440
0.435
0.455
0.495
0.540
0.560
0.560
0.545
0.560
0.580
0.600
0.620
0.630
0.620
0.620
0.620
0.635
0.660
0.675
0.680
0.685
0.725
0.745
0.750
0.750
0.735
0.730
0.750
0.770
0.775
0.775
0.740
0.720
0.700
0.685
0.675
0.655
0.620
0.585
0.555
0.560
0.545
0.530
0.510
0.505
0.515
0.535
0.520
0.510
0.505
0.500
0.495
0.510
0.535
0.550
0.545
0.530
0.555
0.580
0.590
0.565
0.555
0.580
0.640
0.695
0.705
0.710
0.695
0.700
0.695
0.705
0.695
0.675
0.645
0.620
0.625
0.610
0.585
0.550
0.510
0.475
0.485
0.510
0.545
0.550
0.520
0.495
0.485
0.480
0.475
0.440
0.430
0.410
0.415
0.470
0.505
0.495
0.450
0.420
0.430
0.435
0.410
0.375
0.330
0.300
0.280
0.275
0.320
0.430
0.585
0.790
1.020
1.280
1.530
1.725
1.870
1.925
1.795
1.465
1.110
0.750
0.475
0.360
0.350
0.400
0.430
0.425
0.430
0.445
0.455
0.480
0.470
0.460
0.460
0.485
0.500
0.515
0.500
0.475
0.485
0.490
0.515
0.530
0.555
0.600
0.605
0.600
0.570
0.585
0.565
0.570
0.545
0.525
0.535
0.575
0.585
0.585
0.560
0.560
0.555
0.575
0.585
0.600
0.595
0.565
0.580
0.600
0.605
0.605
0.605
0.615
0.645
0.685
0.710
0.700
0.700
0.695
0.705
0.745
0.755
0.775
0.780
0.780
0.780
0.790
0.810
0.830
0.825
0.830
0.840
0.860
0.870
0.875
0.880
0.870
0.890
0.920
0.935
0.930
0.915
0.920
0.910
0.910
0.940
0.955
0.940
0.915
0.915
0.950
0.940
0.905
0.875
0.865
0.860
0.845
0.815
0.800
0.775
0.770
0.780
0.760
0.725
0.710
0.700
0.695
0.710
0.695
0.690
0.685
0.670
0.650
0.650
0.660
0.645
0.645
0.660
0.695
0.720
0.750
0.770
0.790
0.800
0.810
0.845
0.880
0.900
0.880
0.840
0.815
0.820
0.830
0.840
0.830
0.795
0.775
0.760
0.750
0.745
0.720
0.680
0.640
0.635
0.640
0.645
0.655
0.655
0.645
0.645
0.645
0.630
0.615
0.600
0.600
0.610
0.615
0.625
0.605
0.570
0.570
0.565
0.550
0.520
0.485
0.450
0.485
0.585
0.740
0.930
1.145
1.400
1.640
1.845
2.045
2.090
1.935
1.550
1.140
0.790
0.595
0.545
0.550
0.570
0.575
0.585
0.590
0.585
0.555
0.530
0.525
0.530
0.540
0.525
0.520
0.520
0.530
0.550
0.550
0.555
0.555
0.535
0.505
0.515
0.515
0.535
0.545
0.535
0.535
0.535
0.555
0.560
0.545
0.535
0.530
0.540
0.545
0.550
0.540
0.550
0.565
0.570
0.595
0.615
0.625
0.615
0.610
0.630
0.635
0.620
0.620
0.620
0.635
0.650
0.675
0.700
0.695
0.675
0.670
0.685
0.710
0.720
0.700
0.680
0.670
0.680
0.705
0.715
0.720
0.705
0.705
0.720
0.735
0.770
0.750
0.745
0.750
0.755
0.755
0.760
0.745
0.720
0.700
0.705
0.690
0.690
0.665
0.630
0.620
0.590
0.595
0.575
0.535
0.520
0.495
0.490
0.490
0.470
0.450
0.445
0.420
0.425
0.440
0.450
0.450
0.425
0.420
0.445
0.480
0.495
0.485
0.475
0.470
0.485
0.515
0.535
0.540
0.530
0.520
0.515
0.530
0.535
0.525
0.500
0.485
0.465
0.465
0.450
0.440
0.395
0.370
0.350
0.350
0.360
0.345
0.320
0.305
0.300
0.310
0.300
0.295
0.280
0.270
0.285
0.300
0.300
0.290
0.280
0.265
0.275
0.280
0.265
0.250
0.195
0.160
0.195
0.255
0.375
0.525
0.690
0.925
1.200
1.490
1.700
1.745
1.555
1.215
0.930
0.655
0.415
0.300
0.265
0.270
0.275
0.305
0.320
0.305
0.270
0.235
0.225
0.235
0.240
0.240
0.245
0.230
0.230
0.235
0.215
0.215
0.185
0.170
0.165
0.180
0.200
0.185
0.165
0.180
0.185
0.220
0.225
0.230
0.200
0.180
0.190
0.195
0.200
0.210
0.200
0.220
0.225
0.240
0.235
0.225
0.225
0.210
0.220
0.235
0.260
0.265
0.260
0.235
0.255
0.275
0.290
0.310
0.335
0.330
0.340
0.335
0.360
0.350
0.350
0.350
0.360
0.370
0.390
0.400
0.405
0.410
0.425
0.445
0.445
0.405
0.400
0.430
0.440
0.430
0.435
0.455
0.465
0.455
0.440
0.435
0.430
0.405
0.375
0.345
0.320
0.330
0.335
0.325
0.290
0.265
0.220
0.200
0.175
0.115
0.005
-0.070
-0.010
0.110
0.180
0.230
0.240
0.245
0.245
0.245
0.235
0.230
0.210
0.210
0.235
0.260
0.265
0.255
0.250
0.260
0.300
0.310
0.295
0.280
0.255
0.255
0.250
0.260
0.245
0.230
0.200
0.190
0.185
0.180
0.150
0.100
0.085
0.055
0.060
0.070
0.060
0.040
0.020
0.000
0.000
0.030
0.030
0.020
0.005
0.000
0.005
0.005
-0.005
-0.065
-0.150
-0.170
-0.145
-0.070
0.060
0.195
0.365
0.620
0.895
1.190
1.370
1.330
1.065
0.745
0.455
0.200
0.035
-0.035
-0.030
-0.055
-0.045
-0.015
-0.010
-0.005
-0.050
-0.070
-0.075
-0.060
-0.065
-0.085
-0.125
-0.130
-0.110
-0.085
-0.080
-0.070
-0.100
-0.090
-0.090
-0.065
-0.080
-0.075
-0.115
-0.115
-0.110
-0.095
-0.085
-0.085
-0.090
-0.095
-0.090
-0.075
-0.055
-0.060
-0.065
-0.080
-0.070
-0.050
-0.035
-0.040
-0.045
-0.035
-0.015
-0.005
0.010
0.015
0.000
-0.005
0.005
0.005
0.015
0.025
0.015
0.000
0.020
0.055
0.045
0.045
0.030
0.035
0.050
0.095
0.105
0.105
0.105
0.105
0.110
0.125
0.160
0.160
0.130
0.130
0.135
0.155
0.155
0.165
0.160
0.160
0.145
0.135
0.135
0.105
0.060
0.020
0.000
0.015
0.030
0.015
-0.015
-0.030
-0.025
-0.020
-0.015
-0.015
-0.040
-0.040
-0.045
-0.025
-0.020
-0.015
-0.025
-0.005
0.020
0.035
0.050
0.040
0.035
0.015
0.050
0.085
0.105
0.095
0.050
0.060
0.065
0.065
0.065
0.055
0.045
0.015
-0.010
-0.035
-0.040
-0.055
-0.080
-0.105
-0.110
-0.100
-0.120
-0.150
-0.195
-0.215
-0.195
-0.185
-0.175
-0.170
-0.175
-0.175
-0.180
-0.165
-0.180
-0.200
-0.275
-0.335
-0.355
-0.335
-0.300
-0.245
-0.120
0.075
0.340
0.655
0.935
1.130
1.200
1.040
0.755
0.445
0.155
-0.070
-0.175
-0.190
-0.195
-0.180
-0.170
-0.165
-0.160
-0.175
-0.170
-0.200
-0.205
-0.245
-0.280
-0.325
-0.335
-0.310
-0.290
-0.280
-0.275
-0.305
-0.315
-0.300
-0.275
-0.240
-0.260
-0.295
-0.300
-0.260
-0.230
-0.235
-0.275
-0.310
-0.355
-0.365
-0.355
-0.340
-0.335
-0.330
-0.315
-0.305
-0.320
-0.350
-0.340
-0.335
-0.350
-0.350
-0.330
-0.280
-0.250
-0.260
-0.270
-0.250
-0.240
-0.250
-0.260
-0.260
-0.240
-0.225
-0.235
-0.260
-0.255
-0.225
-0.190
-0.150
-0.120
-0.100
-0.105
-0.110
-0.125
-0.110
-0.105
-0.115
-0.140
-0.155
-0.145
-0.125
-0.120
-0.130
-0.140
-0.155
-0.165
-0.160
-0.160
-0.155
-0.170
-0.195
-0.205
-0.210
-0.240
-0.260
-0.265
-0.280
-0.295
-0.320
-0.310
-0.325
-0.375
-0.390
-0.415
-0.400
-0.380
-0.400
-0.420
-0.420
-0.395
-0.355
-0.355
-0.365
-0.365
-0.380
-0.375
-0.345
-0.315
-0.285
-0.285
-0.315
-0.315
-0.285
-0.285
-0.330
-0.400
-0.440
-0.430
-0.415
-0.435
-0.485
-0.530
-0.540
-0.565
-0.555
-0.545
-0.575
-0.605
-0.610
-0.570
-0.570
-0.590
-0.605
-0.610
-0.620
-0.640
-0.710
-0.770
-0.820
-0.805
-0.690
-0.490
-0.250
-0.010
0.240
0.490
0.715
0.810
0.685
0.360
0.005
-0.305
-0.525
-0.595
-0.585
-0.580
-0.600
-0.640
-0.655
-0.655
-0.635
-0.625
-0.630
-0.670
-0.695
-0.675
-0.680
-0.685
-0.695
-0.700
-0.720
-0.725
-0.725
-0.710
-0.685
-0.700
-0.725
-0.735
-0.710
-0.685
-0.675
-0.690
-0.695
-0.690
-0.665
-0.650
-0.685
-0.705
-0.700
-0.650
-0.620
-0.620
-0.655
-0.675
-0.665
-0.640
-0.600
-0.565
-0.570
-0.585
-0.580
-0.575
-0.545
-0.535
-0.545
-0.555
-0.555
-0.550
-0.520
-0.480
-0.470
-0.475
-0.500
-0.490
-0.470
-0.460
-0.450
-0.450
-0.480
-0.500
-0.475
-0.430
-0.385
-0.370
-0.435
-0.440
-0.405
-0.355
-0.335
-0.365
-0.375
-0.355
-0.345
-0.345
-0.370
-0.415
-0.435
-0.435
-0.425
-0.415
-0.395
-0.450
-0.520
-0.585
-0.575
-0.550
-0.550
-0.575
-0.595
-0.580
-0.565
-0.570
-0.585
-0.610
-0.610
-0.580
-0.550
-0.530
-0.550
-0.555
-0.545
-0.520
-0.480
-0.475
-0.465
-0.480
-0.480
-0.465
-0.455
-0.470
-0.495
-0.530
-0.555
-0.550
-0.525
-0.525
-0.540
-0.595
-0.635
-0.645
-0.645
-0.640
-0.655
-0.680
-0.710
-0.685
-0.675
-0.680
-0.715
-0.755
-0.755
-0.715
-0.680
-0.685
-0.685
-0.690
-0.690
-0.735
-0.780
-0.845
-0.825
-0.790
-0.770
-0.710
-0.595
-0.370
-0.105
0.175
0.460
0.665
0.640
0.365
0.000
-0.345
-0.600
-0.760
-0.800
-0.780
-0.735
-0.720
-0.720
-0.715
-0.700
-0.705
-0.720
-0.740
-0.735
-0.750
-0.770
-0.760
-0.745
-0.730
-0.725
-0.735
-0.705
-0.705
-0.710
-0.725
-0.750
-0.750
-0.725
-0.710
-0.715
-0.745
-0.740
-0.720
-0.680
-0.660
-0.680
-0.720
-0.745
-0.720
-0.665
-0.665
-0.685
-0.695
-0.690
-0.670
-0.635
-0.635
-0.625
-0.640
-0.635
-0.620
-0.590
-0.565
-0.535
-0.540
-0.575
-0.595
-0.575
-0.550
-0.545
-0.570
-0.570
-0.550
-0.505
-0.495
-0.505
-0.505
-0.510
-0.505
-0.465
-0.425
-0.405
-0.435
-0.470
-0.475
-0.465
-0.440
-0.415
-0.395
-0.410
-0.400
-0.415
-0.390
-0.395
-0.395
-0.395
-0.395
-0.385
-0.425
-0.425
-0.440
-0.440
-0.430
-0.420
-0.455
-0.475
-0.495
-0.505
-0.525
-0.530
-0.515
-0.535
-0.585
-0.620
-0.610
-0.585
-0.585
-0.595
-0.600
-0.575
-0.555
-0.510
-0.465
-0.440
-0.460
-0.475
-0.515
-0.530
-0.535
-0.485
-0.460
-0.425
-0.435
-0.445
-0.450
-0.475
-0.485
-0.480
-0.465
-0.445
-0.450
-0.480
-0.520
-0.545
-0.540
-0.540
-0.550
-0.575
-0.615
-0.640
-0.645
-0.620
-0.590
-0.590
-0.630
-0.660
-0.635
-0.625
-0.625
-0.630
-0.645
-0.655
-0.645
-0.630
-0.615
-0.605
-0.645
-0.710
-0.750
-0.735
-0.690
-0.605
-0.500
-0.335
-0.130
0.095
0.310
0.530
0.665
0.630
0.440
0.150
-0.170
-0.460
-0.710
-0.805
-0.835
-0.805
-0.770
-0.735
-0.720
-0.740
-0.735
-0.725
-0.725
-0.745
-0.775
-0.780
-0.790
-0.795
-0.790
-0.790
-0.790
-0.800
-0.760
-0.710
-0.695
-0.695
-0.720
-0.770
-0.785
-0.750
-0.710
-0.675
-0.685
-0.690
-0.690
-0.685
-0.705
-0.700
-0.680
-0.695
-0.690
-0.670
-0.645
-0.660
-0.675
-0.670
-0.650
-0.615
-0.585
-0.565
-0.560
-0.560
-0.555
-0.545
-0.555
-0.555
-0.525
-0.525
-0.515
-0.515
-0.515
-0.520
-0.530
-0.530
-0.495
-0.470
-0.460
-0.445
-0.460
-0.475
-0.475
-0.450
-0.435
-0.425
-0.430
-0.450
-0.445
-0.435
-0.440
-0.445
-0.440
-0.420
-0.405
-0.375
-0.370
-0.375
-0.390
-0.400
-0.415
-0.425
-0.415
-0.400
-0.430
-0.420
-0.410
-0.405
-0.410
-0.455
-0.510
-0.555
-0.535
-0.520
-0.520
-0.540
-0.560
-0.575
-0.580
-0.590
-0.590
-0.585
-0.605
-0.625
-0.630
-0.615
-0.620
-0.610
-0.610
-0.605
-0.615
-0.585
-0.565
-0.575
-0.585
-0.590
-0.575
-0.535
-0.495
-0.485
-0.465
-0.500
-0.510
-0.510
-0.480
-0.490
-0.515
-0.560
-0.570
-0.555
-0.545
-0.545
-0.570
-0.610
-0.600
-0.595
-0.600
-0.625
-0.660
-0.700
-0.690
-0.675
-0.650
-0.655
-0.675
-0.725
-0.740
-0.715
-0.700
-0.700
-0.710
-0.720
-0.710
-0.705
-0.710
-0.715
-0.750
-0.790
-0.825
-0.825
-0.745
-0.655
-0.545
-0.405
-0.225
0.050
0.350
0.595
0.765
0.855
0.790
0.590
0.315
0.025
-0.295
-0.580
-0.720
-0.760
-0.730
-0.720
-0.705
-0.715
-0.700
-0.690
-0.700
-0.720
-0.730
-0.720
-0.720
-0.710
-0.710
-0.715
-0.725
-0.735
-0.740
-0.730
-0.730
-0.730
-0.720
-0.715
-0.735
-0.735
-0.720
-0.710
-0.715
-0.745
-0.740
-0.735
-0.715
-0.710
-0.725
-0.710
-0.705
-0.725
-0.735
-0.725
-0.715
-0.705
-0.695
-0.665
-0.645
-0.640
-0.660
-0.660
-0.655
-0.625
-0.625
-0.610
-0.635
-0.640
-0.640
-0.605
-0.590
-0.575
-0.575
-0.565
-0.550
-0.535
-0.525
-0.535
-0.570
-0.575
-0.575
-0.565
-0.535
-0.520
-0.525
-0.530
-0.535
-0.510
-0.505
-0.490
-0.495
-0.495
-0.485
-0.475
-0.455
-0.460
-0.470
-0.480
-0.485
-0.455
-0.445
-0.445
-0.475
-0.490
-0.490
-0.460
-0.445
-0.460
-0.485
-0.495
-0.510
-0.500
-0.520
-0.545
-0.590
-0.620
-0.620
-0.590
-0.590
-0.605
-0.630
-0.645
-0.630
-0.615
-0.615
-0.610
-0.630
-0.630
-0.620
-0.615
-0.595
-0.610
-0.605
-0.605
-0.595
-0.570
-0.570
-0.560
-0.555
-0.525
-0.495
-0.485
-0.495
-0.515
-0.530
-0.555
-0.530
-0.515
-0.520
-0.540
-0.580
-0.610
-0.615
-0.600
-0.595
-0.600
-0.640
-0.655
-0.645
-0.645
-0.690
-0.740
-0.760
-0.765
-0.750
-0.745
-0.730
-0.730
-0.755
-0.780
-0.790
-0.760
-0.745
-0.740
-0.760
-0.790
-0.815
-0.850
-0.860
-0.865
-0.850
-0.775
-0.635
-0.410
-0.145
0.155
0.420
0.650
0.790
0.740
0.490
0.155
-0.205
-0.520
-0.740
-0.820
-0.795
-0.770
-0.775
-0.790
-0.785
-0.760
-0.740
-0.755
-0.780
-0.800
-0.810
-0.805
-0.800
-0.810
-0.820
-0.805
-0.785
-0.790
-0.810
-0.835
-0.840
-0.830
-0.825
-0.790
-0.790
-0.775
-0.795
-0.820
-0.810
-0.795
-0.790
-0.805
-0.805
-0.830
-0.820
-0.800
-0.785
-0.770
-0.770
-0.780
-0.765
-0.760
-0.745
-0.750
-0.745
-0.765
-0.770
-0.745
-0.725
-0.705
-0.710
-0.715
-0.705
-0.680
-0.670
-0.665
-0.665
-0.655
-0.655
-0.640
-0.650
-0.625
-0.630
-0.635
-0.610
-0.600
-0.595
-0.605
-0.620
-0.630
-0.625
-0.595
-0.560
-0.545
-0.555
-0.580
-0.580
-0.545
-0.540
-0.540
-0.545
-0.545
-0.540
-0.545
-0.530
-0.530
-0.555
-0.575
-0.585
-0.580
-0.585
-0.600
-0.640
-0.680
-0.705
-0.705
-0.695
-0.675
-0.690
-0.700
-0.720
-0.705
-0.700
-0.700
-0.715
-0.740
-0.720
-0.710
-0.695
-0.690
-0.710
-0.710
-0.695
-0.670
-0.640
-0.605
-0.625
-0.645
-0.645
-0.625
-0.620
-0.615
-0.605
-0.610
-0.605
-0.625
-0.650
-0.675
-0.690
-0.700
-0.700
-0.700
-0.710
-0.730
-0.775
-0.800
-0.835
-0.835
-0.820
-0.805
-0.810
-0.830
-0.850
-0.840
-0.830
-0.835
-0.840
-0.840
-0.835
-0.835
-0.845
-0.855
-0.905
-0.955
-0.975
-0.935
-0.825
-0.675
-0.495
-0.265
0.015
0.305
0.565
0.735
0.760
0.585
0.285
-0.020
-0.335
-0.585
-0.765
-0.840
-0.835
-0.845
-0.855
-0.865
-0.860
-0.860
-0.875
-0.875
-0.870
-0.880
-0.900
-0.920
-0.930
-0.910
-0.895
-0.915
-0.955
-0.955
-0.950
-0.935
-0.910
-0.890
-0.915
-0.925
-0.950
-0.945
-0.935
-0.920
-0.925
-0.940
-0.935
-0.905
-0.905
-0.905
-0.935
-0.950
-0.935
-0.885
-0.870
-0.865
-0.885
-0.885
-0.880
-0.860
-0.860
-0.865
-0.890
-0.885
-0.855
-0.850
-0.845
-0.835
-0.825
-0.825
-0.800
-0.780
-0.780
-0.770
-0.770
-0.785
-0.770
-0.745
-0.735
-0.730
-0.750
-0.760
-0.745
-0.705
-0.715
-0.710
-0.720
-0.725
-0.715
-0.700
-0.680
-0.670
-0.695
-0.690
-0.700
-0.705
-0.680
-0.665
-0.660
-0.670
-0.675
-0.685
-0.675
-0.685
-0.690
-0.700
-0.710
-0.730
-0.765
-0.775
-0.790
-0.800
-0.810
-0.810
-0.805
-0.810
-0.845
-0.860
-0.845
-0.825
-0.835
-0.830
-0.850
-0.850
-0.840
-0.800
-0.780
-0.780
-0.785
-0.800
-0.800
-0.770
-0.735
-0.715
-0.715
-0.730
-0.730
-0.725
-0.715
-0.725
-0.725
-0.740
-0.760
-0.750
-0.755
-0.770
-0.805
-0.835
-0.860
-0.845
-0.845
-0.855
-0.885
-0.885
-0.875
-0.895
-0.940
-0.960
-0.955
-0.930
-0.915
-0.900
-0.910
-0.915
-0.925
-0.925
-0.945
-0.980
-1.040
-1.040
-1.020
-0.955
-0.805
-0.600
-0.360
-0.075
0.210
0.490
0.665
0.625
0.365
-0.005
-0.395
-0.700
-0.845
-0.865
-0.880
-0.910
-0.915
-0.900
-0.915
-0.885
-0.885
-0.890
-0.920
-0.955
-0.965
-0.930
-0.905
-0.910
-0.940
-0.965
-0.960
-0.940
-0.910
-0.925
-0.940
-0.950
-0.950
-0.925
-0.910
-0.915
-0.940
-0.955
-0.930
-0.905
-0.900
-0.895
-0.895
-0.880
-0.860
-0.855
-0.870
-0.890
-0.890
-0.860
-0.865
-0.840
-0.830
-0.820
-0.820
-0.825
-0.800
-0.765
-0.755
-0.750
-0.785
-0.800
-0.770
-0.745
-0.715
-0.710
-0.730
-0.745
-0.730
-0.715
-0.690
-0.685
-0.695
-0.675
-0.670
-0.655
-0.640
-0.610
-0.615
-0.635
-0.645
-0.630
-0.620
-0.605
-0.600
-0.610
-0.605
-0.610
-0.600
-0.595
-0.610
-0.625
-0.645
-0.680
-0.695
-0.695
-0.710
-0.715
-0.710
-0.720
-0.735
-0.745
-0.740
-0.745
-0.735
-0.715
-0.705
-0.700
-0.730
-0.720
-0.725
-0.680
-0.660
-0.645
-0.640
-0.645
-0.615
-0.590
-0.590
-0.610
-0.615
-0.625
-0.605
-0.600
-0.585
-0.625
-0.665
-0.650
-0.670
-0.675
-0.680
-0.685
-0.715
-0.740
-0.760
-0.770
-0.770
-0.770
-0.785
-0.770
-0.775
-0.775
-0.765
-0.775
-0.795
-0.820
-0.810
-0.785
-0.775
-0.775
-0.805
-0.860
-0.900
-0.915
-0.850
-0.745
-0.615
-0.405
-0.155
0.105
0.420
0.670
0.815
0.760
0.505
0.170
-0.140
-0.420
-0.635
-0.710
-0.740
-0.775
-0.775
-0.765
-0.755
-0.740
-0.735
-0.735
-0.735
-0.755
-0.785
-0.790
-0.815
-0.805
-0.790
-0.775
-0.780
-0.805
-0.810
-0.775
-0.775
-0.790
-0.800
-0.795
-0.765
-0.755
-0.755
-0.765
-0.775
-0.775
-0.750
-0.730
-0.745
-0.755
-0.750
-0.745
-0.740
-0.730
-0.700
-0.690
-0.690
-0.700
-0.695
-0.665
-0.660
-0.675
-0.710
-0.710
-0.690
-0.660
-0.640
-0.620
-0.610
-0.615
-0.610
-0.600
-0.575
-0.560
-0.560
-0.590
-0.590
-0.580
-0.580
-0.570
-0.585
-0.565
-0.535
-0.525
-0.500
-0.510
-0.530
-0.525
-0.525
-0.485
-0.485
-0.500
-0.535
-0.535
-0.520
-0.500
-0.500
-0.475
-0.480
-0.495
-0.500
-0.490
-0.475
-0.475
-0.500
-0.530
-0.525
-0.490
-0.495
-0.500
-0.555
-0.570
-0.565
-0.550
-0.545
-0.565
-0.590
-0.595
-0.585
-0.570
-0.590
-0.560
-0.565
-0.565
-0.560
-0.545
-0.545
-0.540
-0.560
-0.560
-0.550
-0.525
-0.530
-0.515
-0.495
-0.490
-0.475
-0.490
-0.480
-0.470
-0.470
-0.470
-0.465
-0.490
-0.470
-0.490
-0.520
-0.545
-0.560
-0.560
-0.570
-0.610
-0.620
-0.660
-0.645
-0.620
-0.605
-0.630
-0.655
-0.675
-0.675
-0.660
-0.640
-0.635
-0.630
-0.645
-0.655
-0.665
-0.670
-0.685
-0.705
-0.725
-0.690
-0.590
-0.470
-0.300
-0.075
0.225
0.565
0.840
0.995
0.955
0.700
0.350
0.030
-0.255
-0.430
-0.490
-0.520
-0.580
-0.570
-0.530
-0.500
-0.510
-0.540
-0.565
-0.570
-0.545
-0.535
-0.525
-0.545
-0.580
-0.575
-0.565
-0.555
-0.550
-0.570
-0.585
-0.570
-0.560
-0.555
-0.545
-0.565
-0.585
-0.550
-0.535
-0.520
-0.535
-0.550
-0.555
-0.540
-0.510
-0.500
-0.500
-0.500
-0.525
-0.525
-0.500
-0.480
-0.475
-0.510
-0.505
-0.495
-0.475
-0.460
-0.465
-0.475
-0.475
-0.470
-0.480
-0.505
-0.500
-0.490
-0.485
-0.480
-0.460
-0.445
-0.475
-0.465
-0.460
-0.435
-0.430
-0.425
-0.425
-0.440
-0.455
-0.470
-0.455
-0.435
-0.445
-0.465
-0.475
-0.465
-0.435
-0.425
-0.430
-0.445
-0.450
-0.460
-0.470
-0.450
-0.440
-0.450
-0.470
-0.485
-0.455
-0.435
-0.415
-0.430
-0.455
-0.490
-0.480
-0.460
-0.440
-0.450
-0.475
-0.485
-0.470
-0.465
-0.460
-0.460
-0.460
-0.455
-0.420
-0.390
-0.395
-0.415
-0.405
-0.375
-0.340
-0.335
-0.340
-0.335
-0.325
-0.295
-0.275
-0.245
-0.245
-0.265
-0.275
-0.280
-0.270
-0.255
-0.265
-0.285
-0.325
-0.355
-0.375
-0.370
-0.395
-0.415
-0.445
-0.445
-0.435
-0.445
-0.440
-0.470
-0.490
-0.500
-0.490
-0.490
-0.495
-0.520
-0.530
-0.515
-0.495
-0.490
-0.505
-0.505
-0.530
-0.535
-0.555
-0.590
-0.595
-0.585
-0.540
-0.425
-0.250
-0.025
0.240
0.515
0.785
0.995
1.005
0.775
0.430
0.080
-0.210
-0.430
-0.525
-0.540
-0.530
-0.530
-0.530
-0.520
-0.490
-0.495
-0.510
-0.520
-0.530
-0.515
-0.520
-0.495
-0.490
-0.510
-0.505
-0.515
-0.515
-0.500
-0.480
-0.480
-0.495
-0.510
-0.495
-0.480
-0.465
-0.450
-0.450
-0.440
-0.415
-0.400
-0.400
-0.420
-0.420
-0.410
-0.400
-0.395
-0.405
-0.400
-0.395
-0.365
-0.355
-0.330
-0.345
-0.355
-0.360
-0.350
-0.345
-0.340
-0.335
-0.350
-0.350
-0.345
-0.320
-0.305
-0.300
-0.320
-0.325
-0.320
-0.310
-0.295
-0.310
-0.305
-0.310
-0.305
-0.280
-0.255
-0.255
-0.270
-0.265
-0.250
-0.220
-0.185
-0.175
-0.200
-0.220
-0.205
-0.165
-0.130
-0.150
-0.165
-0.160
-0.140
-0.095
-0.090
-0.090
-0.095
-0.105
-0.110
-0.090
-0.100
-0.100
-0.120
-0.155
-0.170
-0.165
-0.135
-0.135
-0.150
-0.165
-0.160
-0.150
-0.135
-0.135
-0.155
-0.160
-0.150
-0.130
-0.105
-0.090
-0.100
-0.105
-0.070
-0.025
0.025
0.035
0.045
0.025
0.020
0.015
0.010
-0.005
-0.025
-0.045
-0.045
-0.045
-0.050
-0.070
-0.100
-0.140
-0.175
-0.190
-0.185
-0.195
-0.235
-0.260
-0.260
-0.270
-0.265
-0.250
-0.270
-0.285
-0.285
-0.245
-0.220
-0.235
-0.245
-0.280
-0.300
-0.315
-0.335
-0.315
-0.240
-0.125
0.070
0.325
0.620
0.900
1.105
1.220
1.165
0.855
0.405
0.000
-0.300
-0.410
-0.345
-0.290
-0.255
-0.205
-0.180
-0.165
-0.160
-0.180
-0.165
-0.145
-0.145
-0.155
-0.155
-0.155
-0.140
-0.175
-0.210
-0.220
-0.195
-0.135
-0.105
-0.110
-0.150
-0.190
-0.195
-0.190
-0.165
-0.155
-0.160
-0.145
-0.145
-0.120
-0.090
-0.075
-0.085
-0.080
-0.075
-0.060
-0.045
-0.020
-0.020
-0.030
-0.020
0.010
0.015
0.015
0.005
0.010
0.035
0.045
0.045
0.080
0.070
0.055
0.060
0.070
0.100
0.100
0.085
0.080
0.095
0.120
0.135
0.140
0.105
0.105
0.085
0.090
0.110
0.115
0.110
0.105
0.110
0.125
0.145
0.145
0.150
0.155
0.175
0.175
0.185
0.195
0.165
0.135
0.135
0.145
0.140
0.130
0.100
0.090
0.090
0.085
0.095
0.075
0.050
0.030
0.025
0.035
0.040
0.030
0.000
-0.010
-0.010
-0.005
-0.005
-0.010
-0.010
-0.005
0.010
0.040
0.070
0.085
0.090
0.095
0.125
0.150
0.185
0.210
0.240
0.250
0.280
0.275
0.285
0.290
0.295
0.280
0.275
0.275
0.275
0.240
0.205
0.180
0.165
0.155
0.150
0.120
0.095
0.085
0.085
0.080
0.100
0.100
0.085
0.060
0.060
0.085
0.090
0.090
0.080
0.075
0.095
0.110
0.100
0.095
0.070
0.030
0.040
0.090
0.205
0.325
0.500
0.680
0.905
1.175
1.440
1.635
1.720
1.600
1.295
0.900
0.540
0.260
0.080
0.035
0.040
0.065
0.040
0.040
0.045
0.060
0.070
0.065
0.085
0.080
0.070
0.055
0.045
0.060
0.050
0.040
0.020
0.015
0.025
0.020
0.005
0.005
0.015
0.045
0.065
0.055
0.060
0.055
0.025
-0.010
-0.035
-0.010
0.010
0.005
-0.010
-0.030
-0.015
0.010
0.015
0.015
0.045
0.060
0.065
0.065
0.075
0.090
0.080
0.075
0.080
0.110
0.115
0.125
0.120
0.120
0.115
0.150
0.175
0.185
0.165
0.160
0.180
0.195
0.215
0.230
0.220
0.205
0.200
0.210
0.245
0.255
0.255
0.250
0.240
0.270
0.300
0.315
0.310
0.275
0.280
0.280
0.305
0.345
0.340
0.315
0.335
0.335
0.325
0.330
0.330
0.305
0.290
0.295
0.325
0.315
0.245
0.220
0.220
0.260
0.305
0.300
0.245
0.210
0.220
0.255
0.305
0.300
0.285
0.255
0.245
0.240
0.270
0.305
0.300
0.305
0.310
0.330
0.365
0.385
0.380
0.380
0.385
0.425
0.490
0.515
0.520
0.525
0.545
0.590
0.610
0.630
0.615
0.600
0.610
0.645
0.675
0.670
0.620
0.605
0.605
0.645
0.675
0.655
0.620
0.615
0.630
0.640
0.660
0.660
0.635
0.635
0.635
0.640
0.650
0.640
0.625
0.640
0.655
0.690
0.740
0.770
0.765
0.845
0.950
1.125
1.360
1.615
1.905
2.160
2.380
2.540
2.580
2.440
2.110
1.705
1.295
1.020
0.900
0.830
0.755
0.695
0.675
0.680
0.685
0.645
0.605
0.590
0.590
0.590
0.580
0.585
0.555
0.520
0.515
0.510
0.510
0.510
0.465
0.470
0.490
0.490
0.530
0.525
0.510
0.490
0.490
0.505
0.510
0.540
0.520
0.530
0.525
0.530
0.540
0.555
0.530
0.525
0.530
0.550
0.555
0.555
0.540
0.525
0.525
0.530
0.505
0.480
0.445
0.425
0.410
0.410
0.395
0.395
0.370
0.340
0.330
0.365
0.405
0.435
0.445
0.445
0.435
0.420
0.425
0.450
0.450
0.455
0.470
0.500
0.545
0.565
0.580
0.555
0.565
0.585
0.615
0.650
0.665
0.665
0.670
0.700
0.720
0.705
0.685
0.660
0.655
0.650
0.640
0.645
0.640
0.635
0.630
0.620
0.640
0.645
0.610
0.585
0.575
0.600
0.595
0.580
0.575
0.560
0.565
0.575
0.605
0.600
0.580
0.585
0.585
0.600
0.615
0.620
0.595
0.595
0.620
0.635
0.665
0.690
0.690
0.665
0.695
0.695
0.730
0.760
0.765
0.765
0.760
0.780
0.815
0.850
0.865
0.875
0.900
0.920
0.915
0.885
0.850
0.835
0.835
0.825
0.835
0.815
0.785
0.770
0.775
0.785
0.810
0.840
0.875
0.930
0.990
1.060
1.125
1.195
1.270
1.325
1.385
1.455
1.540
1.620
1.700
1.770
1.860
1.920
2.015
2.130
2.245
2.325
2.400
2.470
2.515
2.540
2.555
2.550
2.480
2.260
1.945
1.565
1.210
0.935
0.770
0.680
0.595
0.510
0.460
0.435
0.435
0.450
0.440
0.410
0.375
0.355
0.345
0.340
0.350
0.350
0.315
0.290
0.285
0.305
0.305
0.290
0.270
0.270
0.270
0.285
0.290
0.280
0.265
0.235
0.225
0.215
0.215
0.215
0.185
0.170
0.160
0.160
0.175
0.160
0.125
0.110
0.095
0.105
0.100
0.085
0.060
0.030
0.025
0.035
0.070
0.070
0.030
0.005
0.010
0.035
0.060
0.045
0.020
0.015
0.015
0.025
0.040
0.050
0.030
0.030
0.060
0.080
0.105
0.125
0.115
0.120
0.135
0.165
0.195
0.210
0.215
0.235
0.265
0.305
0.360
0.410
0.430
0.435
0.445
0.465
0.485
0.505
0.485
0.485
0.480
0.480
0.490
0.500
0.470
0.465
0.465
0.475
0.490
0.480
0.455
0.435
0.430
0.435
0.435
0.440
0.415
0.385
0.390
0.420
0.435
0.410
0.385
0.380
0.380
0.390
0.390
0.400
0.375
0.370
0.350
0.350
0.375
0.380
0.365
0.350
0.375
0.405
0.430
0.440
0.420
0.425
0.430
0.465
0.515
0.545
0.545
0.540
0.560
0.580
0.615
0.625
0.630
0.640
0.645
0.645
0.655
0.685
0.660
0.640
0.615
0.600
0.575
0.560
0.535
0.515
0.510
0.500
0.485
0.455
0.420
0.395
0.395
0.405
0.415
0.390
0.365
0.355
0.340
0.340
0.340
0.330
0.295
0.245
0.245
0.305
0.410
0.570
0.740
0.940
1.185
1.440
1.695
1.890
1.945
1.785
1.475
1.100
0.745
0.490
0.350
0.315
0.310
0.305
0.285
0.285
0.290
0.295
0.285
0.280
0.290
0.295
0.265
0.270
0.275
0.255
0.270
0.260
0.240
0.230
0.235
0.245
0.245
0.230
0.230
0.215
0.220
0.255
0.265
0.265
0.235
0.220
0.225
0.235
0.275
0.270
0.255
0.250
0.270
0.290
0.305
0.305
0.270
0.255
0.290
0.300
0.330
0.345
0.345
0.320
0.315
0.340
0.355
0.350
0.335
0.320
0.330
0.365
0.365
0.375
0.370
0.375
0.385
0.395
0.405
0.410
0.400
0.395
0.395
0.410
0.410
0.400
0.380
0.395
0.420
0.440
0.465
0.465
0.455
0.460
0.475
0.480
0.500
0.500
0.485
0.475
0.495
0.500
0.510
0.520
0.495
0.495
0.495
0.500
0.505
0.495
0.460
0.440
0.445
0.460
0.450
0.425
0.390
0.375
0.375
0.365
0.375
0.365
0.365
0.350
0.335
0.315
0.300
0.285
0.280
0.285
0.300
0.290
0.285
0.295
0.305
0.320
0.320
0.320
0.325
0.340
0.320
0.315
0.285
0.295
0.330
0.330
0.300
0.290
0.260
0.285
0.295
0.295
0.290
0.305
0.330
0.355
0.355
0.340
0.320
0.315
0.330
0.335
0.345
0.355
0.325
0.295
0.280
0.285
0.285
0.280
0.235
0.205
0.175
0.175
0.175
0.160
0.135
0.115
0.110
0.125
0.135
0.145
0.135
0.120
0.140
0.165
0.205
0.220
0.235
0.250
0.265
0.300
0.315
0.310
0.295
0.295
0.320
0.355
0.380
0.450
0.510
0.610
0.760
0.950
1.145
1.340
1.530
1.730
1.925
2.060
2.125
2.100
1.935
1.685
1.345
0.970
0.645
0.410
0.290
0.200
0.160
0.140
0.145
0.125
0.065
-0.005
-0.035
-0.055
-0.055
-0.060
-0.075
-0.100
-0.105
-0.100
-0.110
-0.100
-0.125
-0.135
-0.140
-0.145
-0.150
-0.170
-0.185
-0.230
-0.250
-0.245
-0.240
-0.245
-0.265
-0.290
-0.275
-0.265
-0.250
-0.240
-0.245
-0.255
-0.255
-0.235
-0.220
-0.215
-0.220
-0.235
-0.240
-0.220
-0.195
-0.200
-0.195
-0.215
-0.220
-0.220
-0.195
-0.175
-0.170
-0.170
-0.190
-0.170
-0.165
-0.170
-0.175
-0.185
-0.185
-0.175
-0.160
-0.170
-0.185
-0.185
-0.170
-0.160
-0.150
-0.150
-0.180
-0.200
-0.200
-0.175
-0.165
-0.155
-0.165
-0.160
-0.165
-0.145
-0.130
-0.110
-0.100
-0.105
-0.095
-0.075
-0.065
-0.050
-0.055
-0.015
-0.020
0.015
0.035
0.045
0.025
0.010
0.010
0.020
0.025
0.025
-0.005
-0.015
-0.010
0.010
0.040
0.050
0.040
0.025
0.015
0.020
0.020
0.020
0.005
-0.010
-0.015
0.005
0.030
0.025
0.025
0.015
0.025
0.040
0.060
0.055
0.035
0.000
0.015
0.015
0.050
0.075
0.045
0.020
0.015
0.025
0.050
0.070
0.035
0.030
0.045
0.060
0.090
0.090
0.090
0.065
0.070
0.100
0.130
0.130
0.130
0.110
0.115
0.110
0.120
0.120
0.075
0.030
0.015
0.020
-0.010
-0.055
-0.110
-0.115
-0.090
-0.055
-0.020
0.005
0.025
0.045
0.090
0.175
0.245
0.305
0.350
0.405
0.465
0.530
0.610
0.685
0.780
0.850
0.925
0.985
1.045
1.125
1.195
1.275
1.350
1.415
1.465
1.515
1.565
1.620
1.680
1.740
1.750
1.635
1.350
0.990
0.670
0.395
0.190
0.055
-0.050
-0.130
-0.195
-0.225
-0.225
-0.245
-0.285
-0.330
-0.345
-0.345
-0.345
-0.360
-0.370
-0.390
-0.400
-0.395
-0.400
-0.390
-0.415
-0.445
-0.480
-0.480
-0.480
-0.495
-0.525
-0.560
-0.595
-0.615
-0.625
-0.650
-0.675
-0.705
-0.725
-0.725
-0.725
-0.725
-0.755
-0.785
-0.790
-0.795
-0.780
-0.780
-0.790
-0.800
-0.775
-0.775
-0.795
-0.820
-0.865
-0.905
-0.930
-0.955
-0.935
-0.915
-0.925
-0.960
-0.965
-0.965
-0.970
-0.975
-0.990
-1.000
-0.995
-0.990
-0.995
-1.015
-1.020
-1.010
-1.005
-1.010
-0.975
-0.975
-0.985
-1.000
-1.005
-0.995
-0.970
-0.935
-0.920
-0.915
-0.900
-0.865
-0.820
-0.780
-0.730
-0.710
-0.670
-0.635
-0.590
-0.540
-0.500
-0.485
-0.480
-0.485
-0.470
-0.450
-0.430
-0.435
-0.415
-0.405
-0.395
-0.385
-0.400
-0.425
-0.425
-0.385
-0.370
-0.370
-0.395
-0.390
-0.365
-0.340
-0.330
-0.330
-0.350
-0.350
-0.360
-0.335
-0.325
-0.330
-0.315
-0.330
-0.345
-0.345
-0.305
-0.295
-0.305
-0.325
-0.340
-0.310
-0.300
-0.290
-0.295
-0.295
-0.295
-0.275
-0.260
-0.275
-0.300
-0.315
-0.335
-0.330
-0.295
-0.285
-0.270
-0.285
-0.300
-0.345
-0.355
-0.365
-0.360
-0.340
-0.310
-0.280
-0.255
-0.250
-0.255
-0.260
-0.240
-0.210
-0.180
-0.150
-0.150
-0.185
-0.200
-0.200
-0.200
-0.205
-0.240
-0.290
-0.320
-0.335
-0.335
-0.360
-0.380
-0.390
-0.380
-0.365
-0.360
-0.390
-0.405
-0.430
-0.440
-0.430
-0.410
-0.400
-0.420
-0.440
-0.470
-0.470
-0.465
-0.435
-0.400
-0.345
-0.240
-0.085
0.130
0.320
0.515
0.700
0.865
0.890
0.680
0.350
-0.005
-0.300
-0.485
-0.570
-0.620
-0.630
-0.655
-0.680
-0.675
-0.635
-0.615
-0.590
-0.615
-0.615
-0.600
-0.570
-0.545
-0.540
-0.545
-0.545
-0.530
-0.530
-0.505
-0.495
-0.515
-0.525
-0.540
-0.550
-0.520
-0.510
-0.530
-0.545
-0.565
-0.570
-0.550
-0.565
-0.585
-0.610
-0.630
-0.615
-0.610
-0.610
-0.635
-0.615
-0.630
-0.620
-0.610
-0.605
-0.610
-0.630
-0.620
-0.630
-0.635
-0.635
-0.655
-0.675
-0.670
-0.655
-0.645
-0.650
-0.660
-0.665
-0.685
-0.665
-0.650
-0.650
-0.660
-0.680
-0.675
-0.660
-0.645
-0.650
-0.655
-0.660
-0.645
-0.635
-0.600
-0.575
-0.555
-0.545
-0.535
-0.525
-0.505
-0.485
-0.495
-0.510
-0.505
-0.495
-0.470
-0.455
-0.465
-0.465
-0.470
-0.455
-0.435
-0.430
-0.445
-0.460
-0.470
-0.460
-0.455
-0.445
-0.465
-0.475
-0.480
-0.485
-0.495
-0.510
-0.535
-0.570
-0.575
-0.560
-0.565
-0.575
-0.595
-0.620
-0.650
-0.640
-0.640
-0.625
-0.635
-0.650
-0.675
-0.665
-0.660
-0.670
-0.695
-0.710
-0.745
-0.740
-0.725
-0.735
-0.755
-0.780
-0.805
-0.795
-0.805
-0.785
-0.785
-0.795
-0.790
-0.765
-0.745
-0.735
-0.735
-0.740
-0.740
-0.710
-0.675
-0.680
-0.670
-0.665
-0.655
-0.650
-0.640
-0.645
-0.650
-0.665
-0.670
-0.670
-0.655
-0.680
-0.710
-0.710
-0.735
-0.750
-0.760
-0.775
-0.775
-0.785
-0.785
-0.750
-0.710
-0.660
-0.615
-0.575
-0.505
-0.425
-0.360
-0.325
-0.295
-0.240
-0.190
-0.140
-0.080
0.005
0.060
0.110
0.155
0.215
0.325
0.425
0.535
0.650
0.815
1.025
1.215
1.335
1.415
1.435
1.345
1.065
0.640
0.205
-0.200
-0.485
-0.625
-0.720
-0.760
-0.850
-0.920
-0.970
-0.965
-0.970
-1.000
-1.020
-1.065
-1.100
-1.120
-1.130
-1.125
-1.140
-1.165
-1.200
-1.230
-1.225
-1.225
-1.240
-1.295
-1.305
-1.330
-1.340
-1.335
-1.335
-1.345
-1.340
-1.340
-1.350
-1.345
-1.325
-1.330
-1.335
-1.335
-1.335
-1.320
-1.295
-1.295
-1.300
-1.265
-1.225
-1.185
-1.130
-1.115
-1.090
-1.070
-1.060
-1.075
-1.110
-1.155
-1.185
-1.195
-1.170
-1.150
-1.155
-1.185
-1.185
-1.140
-1.085
-1.060
-1.065
-1.100
-1.140
-1.150
-1.150
-1.165
-1.155
-1.115
-1.095
-1.065
-1.040
-1.040
-1.060
-1.100
-1.110
-1.085
-1.075
-1.060
-1.075
-1.090
-1.095
-1.090
-1.070
-1.045
-1.025
-1.020
-1.015
-1.010
-0.985
-0.940
-0.915
-0.935
-0.960
-0.975
-0.960
-0.970
-0.965
-0.985
-0.995
-0.980
-0.965
-0.940
-0.935
-0.940
-0.960
-0.990
-0.960
-0.955
-0.955
-0.955
-0.950
-0.935
-0.905
-0.880
-0.875
-0.900
-0.925
-0.920
-0.920
-0.920
-0.935
-0.940
-0.950
-0.950
-0.950
-0.935
-0.925
-0.920
-0.915
-0.915
-0.885
-0.830
-0.765
-0.735
-0.715
-0.715
-0.705
-0.690
-0.665
-0.670
-0.705
-0.715
-0.715
-0.715
-0.700
-0.730
-0.785
-0.815
-0.805
-0.795
-0.795
-0.805
-0.845
-0.850
-0.860
-0.845
-0.835
-0.855
-0.855
-0.865
-0.850
-0.830
-0.820
-0.830
-0.825
-0.825
-0.790
-0.755
-0.745
-0.765
-0.810
-0.805
-0.735
-0.630
-0.485
-0.315
-0.065
0.220
0.505
0.755
0.925
0.900
0.620
0.230
-0.150
-0.505
-0.740
-0.830
-0.865
-0.855
-0.825
-0.805
-0.790
-0.775
-0.765
-0.765
-0.745
-0.725
-0.715
-0.740
-0.765
-0.770
-0.755
-0.755
-0.775
-0.830
-0.875
-0.915
-0.905
-0.860
-0.815
-0.755
-0.695
-0.635
-0.565
-0.480
-0.465
-0.520
-0.580
-0.625
-0.640
-0.665
-0.700
-0.720
-0.755
-0.750
-0.735
-0.710
-0.700
-0.700
-0.670
-0.625
-0.590
-0.535
-0.535
-0.530
-0.550
-0.550
-0.540
-0.530
-0.520
-0.555
-0.560
-0.550
-0.525
-0.510
-0.505
-0.500
-0.505
-0.525
-0.545
-0.590
-0.640
-0.700
-0.710
-0.710
-0.685
-0.660
-0.645
-0.640
-0.675
-0.705
-0.675
-0.600
-0.530
-0.570
-0.710
-0.835
-0.825
-0.630
-0.460
-0.480
-0.275
0.315
0.855
1.025
0.695
0.255
0.360
0.865
1.110
0.930
0.770
0.790
0.815
0.720
0.545
0.405
0.290
0.155
0.010
-0.130
-0.245
-0.375
-0.510
-0.615
-0.700
-0.730
-0.730
-0.710
-0.700
-0.690
-0.680
-0.710
-0.715
-0.740
-0.760
-0.800
-0.815
-0.800
-0.780
-0.740
-0.685
-0.635
-0.565
-0.500
-0.435
-0.380
-0.315
-0.290
-0.275
-0.265
-0.240
-0.225
-0.245
-0.295
-0.340
-0.360
-0.385
-0.410
-0.465
-0.525
-0.585
-0.610
-0.635
-0.650
-0.675
-0.715
-0.750
-0.780
-0.765
-0.750
-0.755
-0.780
-0.790
-0.790
-0.785
-0.750
-0.770
-0.785
-0.805
-0.785
-0.765
-0.735
-0.735
-0.765
-0.800
-0.820
-0.840
-0.825
-0.790
-0.730
-0.605
-0.465
-0.270
-0.045
0.210
0.440
0.635
0.820
0.900
0.765
0.395
-0.085
-0.500
-0.765
-0.850
-0.810
-0.775
-0.790
-0.795
-0.775
-0.735
-0.720
-0.740
-0.755
-0.765
-0.765
-0.770
-0.745
-0.750
-0.775
-0.780
-0.750
-0.725
-0.700
-0.695
-0.690
-0.705
-0.695
-0.675
-0.655
-0.675
-0.680
-0.690
-0.695
-0.680
-0.665
-0.645
-0.645
-0.650
-0.650
-0.635
-0.620
-0.605
-0.610
-0.625
-0.630
-0.615
-0.595
-0.560
-0.550
-0.555
-0.535
-0.520
-0.495
-0.480
-0.500
-0.520
-0.495
-0.475
-0.455
-0.455
-0.455
-0.450
-0.425
-0.420
-0.390
-0.380
-0.390
-0.415
-0.440
-0.455
-0.430
-0.430
-0.450
-0.455
-0.460
-0.435
-0.435
-0.430
-0.445
-0.450
-0.445
-0.430
-0.420
-0.420
-0.435
-0.445
-0.430
-0.425
-0.420
-0.415
-0.445
-0.450
-0.450
-0.425
-0.435
-0.445
-0.465
-0.475
-0.470
-0.465
-0.445
-0.445
-0.455
-0.465
-0.455
-0.435
-0.395
-0.380
-0.380
-0.395
-0.400
-0.385
-0.345
-0.325
-0.350
-0.365
-0.375
-0.365
-0.340
-0.315
-0.295
-0.295
-0.265
-0.235
-0.210
-0.210
-0.225
-0.220
-0.210
-0.185
-0.155
-0.160
-0.170
-0.185
-0.175
-0.175
-0.175
-0.200
-0.235
-0.255
-0.275
-0.280
-0.300
-0.310
-0.325
-0.360
-0.380
-0.410
-0.420
-0.425
-0.435
-0.440
-0.440
-0.425
-0.415
-0.430
-0.440
-0.440
-0.435
-0.430
-0.420
-0.420
-0.435
-0.435
-0.430
-0.390
-0.310
-0.200
-0.085
0.060
0.280
0.535
0.810
1.055
1.260
1.355
1.205
0.840
0.420
0.055
-0.230
-0.360
-0.390
-0.390
-0.405
-0.420
-0.425
-0.430
-0.440
-0.445
-0.445
-0.440
-0.455
-0.480
-0.470
-0.460
-0.450
-0.445
-0.465
-0.465
-0.470
-0.445
-0.450
-0.440
-0.445
-0.445
-0.430
-0.430
-0.410
-0.415
-0.435
-0.430
-0.420
-0.415
-0.400
-0.385
-0.395
-0.405
-0.415
-0.400
-0.360
-0.350
-0.355
-0.360
-0.350
-0.335
-0.295
-0.285
-0.280
-0.280
-0.280
-0.270
-0.240
-0.230
-0.230
-0.225
-0.220
-0.195
-0.180
-0.170
-0.165
-0.190
-0.175
-0.170
-0.150
-0.135
-0.140
-0.145
-0.165
-0.175
-0.140
-0.120
-0.120
-0.145
-0.130
-0.120
-0.115
-0.110
-0.145
-0.150
-0.150
-0.120
-0.115
-0.130
-0.145
-0.170
-0.155
-0.150
-0.135
-0.150
-0.165
-0.185
-0.195
-0.185
-0.205
-0.230
-0.240
-0.265
-0.280
-0.270
-0.250
-0.240
-0.225
-0.250
-0.275
-0.280
-0.255
-0.250
-0.265
-0.295
-0.300
-0.295
-0.260
-0.235
-0.260
-0.270
-0.275
-0.260
-0.235
-0.235
-0.250
-0.275
-0.255
-0.245
-0.220
-0.200
-0.205
-0.200
-0.190
-0.175
-0.155
-0.145
-0.140
-0.135
-0.105
-0.080
-0.075
-0.080
-0.100
-0.120
-0.105
-0.110
-0.115
-0.115
-0.130
-0.145
-0.170
-0.180
-0.175
-0.165
-0.190
-0.200
-0.225
-0.230
-0.240
-0.255
-0.290
-0.330
-0.340
-0.325
-0.315
-0.320
-0.330
-0.345
-0.350
-0.310
-0.285
-0.280
-0.290
-0.305
-0.320
-0.280
-0.180
-0.075
0.080
0.250
0.455
0.685
0.915
1.095
1.180
1.090
0.780
0.395
0.030
-0.260
-0.415
-0.435
-0.435
-0.445
-0.450
-0.420
-0.380
-0.385
-0.375
-0.375
-0.365
-0.360
-0.385
-0.410
-0.430
-0.450
-0.455
-0.495
-0.515
-0.500
-0.470
-0.425
-0.415
-0.435
-0.460
-0.480
-0.510
-0.480
-0.455
-0.445
-0.440
-0.450
-0.455
-0.420
-0.400
-0.415
-0.400
-0.400
-0.375
-0.350
-0.310
-0.305
-0.320
-0.345
-0.380
-0.370
-0.350
-0.310
-0.300
-0.310
-0.325
-0.315
-0.320
-0.305
-0.290
-0.275
-0.280
-0.270
-0.260
-0.275
-0.290
-0.295
-0.275
-0.245
-0.230
-0.230
-0.255
-0.265
-0.280
-0.275
-0.265
-0.255
-0.285
-0.320
-0.305
-0.300
-0.280
-0.265
-0.285
-0.280
-0.275
-0.260
-0.260
-0.260
-0.305
-0.330
-0.335
-0.330
-0.315
-0.325
-0.330
-0.340
-0.350
-0.350
-0.360
-0.340
-0.355
-0.370
-0.350
-0.330
-0.310
-0.320
-0.355
-0.370
-0.395
-0.380
-0.345
-0.325
-0.355
-0.365
-0.375
-0.360
-0.355
-0.365
-0.360
-0.370
-0.380
-0.385
-0.360
-0.345
-0.350
-0.350
-0.355
-0.335
-0.305
-0.290
-0.290
-0.275
-0.255
-0.235
-0.215
-0.220
-0.225
-0.215
-0.190
-0.155
-0.140
-0.130
-0.165
-0.195
-0.200
-0.200
-0.205
-0.210
-0.245
-0.285
-0.300
-0.305
-0.325
-0.340
-0.360
-0.380
-0.390
-0.370
-0.365
-0.375
-0.395
-0.420
-0.405
-0.395
-0.360
-0.335
-0.330
-0.355
-0.375
-0.355
-0.330
-0.320
-0.325
-0.345
-0.360
-0.340
-0.325
-0.310
-0.260
-0.200
-0.110
0.025
0.220
0.425
0.660
0.890
1.100
1.230
1.155
0.840
0.415
0.015
-0.275
-0.410
-0.415
-0.380
-0.405
-0.460
-0.445
-0.400
-0.365
-0.365
-0.365
-0.365
-0.355
-0.350
-0.345
-0.345
-0.360
-0.360
-0.365
-0.355
-0.345
-0.330
-0.330
-0.330
-0.325
-0.300
-0.285
-0.270
-0.285
-0.300
-0.285
-0.275
-0.255
-0.280
-0.305
-0.305
-0.285
-0.245
-0.225
-0.240
-0.255
-0.265
-0.250
-0.240
-0.200
-0.185
-0.195
-0.200
-0.195
-0.170
-0.155
-0.145
-0.155
-0.160
-0.160
-0.150
-0.135
-0.105
-0.095
-0.090
-0.080
-0.060
-0.035
-0.040
-0.050
-0.050
-0.050
-0.040
-0.035
-0.045
-0.030
-0.035
-0.040
-0.045
-0.020
-0.025
-0.005
0.025
0.055
0.055
0.060
0.050
0.050
0.040
0.030
0.040
0.045
0.040
0.015
0.010
-0.005
0.005
0.020
0.010
-0.025
-0.065
-0.045
-0.030
-0.020
-0.040
-0.050
-0.040
0.005
0.045
0.045
0.040
0.045
0.085
0.100
0.090
0.080
0.120
0.170
0.205
0.200
0.200
0.235
0.290
0.310
0.320
0.365
0.420
0.490
0.505
0.505
0.530
0.580
0.640
0.660
0.650
0.635
0.620
0.630
0.650
0.675
0.680
0.665
0.650
0.625
0.615
0.620
0.615
0.615
0.595
0.570
0.595
0.605
0.610
0.590
0.575
0.580
0.620
0.640
0.655
0.645
0.615
0.605
0.630
0.650
0.655
0.630
0.590
0.555
0.555
0.580
0.640
0.710
0.800
0.955
1.175
1.455
1.695
1.880
1.990
1.900
1.630
1.270
0.940
0.690
0.590
0.600
0.610
0.620
0.615
0.605
0.600
0.575
0.575
0.600
0.600
0.575
0.545
0.505
0.500
0.525
0.540
0.520
0.500
0.485
0.480
0.495
0.505
0.485
0.450
0.440
0.430
0.430
0.415
0.415
0.400
0.405
0.430
0.435
0.440
0.435
0.425
0.430
0.425
0.440
0.440
0.425
0.400
0.390
0.395
0.430
0.445
0.430
0.415
0.410
0.425
0.455
0.460
0.445
0.420
0.395
0.410
0.445
0.445
0.435
0.420
0.420
0.415
0.450
0.425
0.405
0.380
0.365
0.370
0.390
0.410
0.395
0.355
0.315
0.295
0.310
0.310
0.310
0.295
0.325
0.355
0.385
0.400
0.375
0.320
0.275
0.290
0.310
0.315
0.280
0.245
0.230
0.245
0.285
0.300
0.285
0.250
0.240
0.255
0.260
0.230
0.205
0.165
0.160
0.150
0.150
0.150
0.145
0.140
0.115
0.100
0.110
0.115
0.090
0.060
0.040
0.040
0.020
0.040
0.030
0.010
0.005
-0.005
0.030
0.045
0.055
0.040
0.025
-0.005
-0.020
-0.040
-0.040
-0.035
-0.010
0.035
0.055
0.070
0.045
0.050
0.085
0.120
0.140
0.145
0.110
0.090
0.070
0.075
0.080
0.085
0.060
0.035
0.015
0.015
0.015
0.000
-0.030
-0.065
-0.090
-0.090
-0.070
-0.075
-0.095
-0.140
-0.150
-0.140
-0.140
-0.160
-0.170
-0.180
-0.185
-0.190
-0.175
-0.175
-0.175
-0.180
-0.175
-0.155
-0.125
-0.130
-0.140
-0.165
-0.180
-0.155
-0.080
-0.020
0.055
0.185
0.395
0.620
0.905
1.125
1.335
1.455
1.450
1.235
0.850
0.440
0.050
-0.185
-0.270
-0.255
-0.265
-0.315
-0.350
-0.340
-0.305
-0.295
-0.310
-0.320
-0.325
-0.335
-0.345
-0.355
-0.350
-0.360
-0.380
-0.395
-0.370
-0.355
-0.335
-0.365
-0.370
-0.380
-0.395
-0.375
-0.365
-0.370
-0.385
-0.415
-0.415
-0.405
-0.400
-0.365
-0.370
-0.360
-0.360
-0.390
-0.395
-0.395
-0.380
-0.385
-0.395
-0.365
-0.355
-0.350
-0.380
-0.380
-0.365
-0.360
-0.340
-0.320
-0.315
-0.330
-0.320
-0.300
-0.285
-0.275
-0.290
-0.300
-0.285
-0.290
-0.290
-0.280
-0.265
-0.260
-0.250
-0.225
-0.220
-0.230
-0.250
-0.260
-0.270
-0.245
-0.250
-0.250
-0.240
-0.245
-0.235
-0.205
-0.200
-0.210
-0.220
-0.225
-0.210
-0.210
-0.190
-0.175
-0.155
-0.150
-0.165
-0.175
-0.180
-0.205
-0.235
-0.265
-0.270
-0.285
-0.280
-0.300
-0.325
-0.350
-0.360
-0.355
-0.340
-0.355
-0.380
-0.410
-0.405
-0.400
-0.395
-0.390
-0.400
-0.395
-0.405
-0.405
-0.395
-0.375
-0.360
-0.375
-0.360
-0.370
-0.365
-0.390
-0.410
-0.425
-0.410
-0.385
-0.385
-0.390
-0.380
-0.400
-0.360
-0.330
-0.295
-0.295
-0.270
-0.280
-0.280
-0.265
-0.245
-0.240
-0.230
-0.230
-0.220
-0.205
-0.190
-0.195
-0.170
-0.165
-0.150
-0.160
-0.155
-0.190
-0.230
-0.260
-0.270
-0.280
-0.280
-0.300
-0.330
-0.350
-0.345
-0.345
-0.320
-0.330
-0.355
-0.355
-0.355
-0.360
-0.350
-0.360
-0.380
-0.435
-0.440
-0.450
-0.430
-0.430
-0.445
-0.450
-0.445
-0.430
-0.430
-0.425
-0.450
-0.445
-0.400
-0.310
-0.155
0.045
0.240
0.460
0.710
0.975
1.240
1.425
1.420
1.185
0.835
0.475
0.150
-0.120
-0.255
-0.300
-0.370
-0.435
-0.460
-0.425
-0.415
-0.415
-0.435
-0.420
-0.450
-0.450
-0.445
-0.460
-0.445
-0.440
-0.415
-0.430
-0.445
-0.435
-0.430
-0.410
-0.385
-0.380
-0.385
-0.400
-0.405
-0.400
-0.390
-0.385
-0.385
-0.395
-0.410
-0.405
-0.390
-0.380
-0.365
-0.375
-0.385
-0.385
-0.390
-0.375
-0.365
-0.365
-0.355
-0.350
-0.330
-0.325
-0.315
-0.335
-0.355
-0.340
-0.330
-0.320
-0.320
-0.335
-0.335
-0.305
-0.290
-0.290
-0.295
-0.305
-0.285
-0.260
-0.250
-0.230
-0.260
-0.260
-0.275
-0.275
-0.260
-0.260
-0.265
-0.290
-0.300
-0.270
-0.260
-0.265
-0.285
-0.285
-0.300
-0.285
-0.270
-0.285
-0.285
-0.280
-0.290
-0.270
-0.235
-0.215
-0.215
-0.225
-0.235
-0.230
-0.205
-0.175
-0.185
-0.210
-0.230
-0.240
-0.245
-0.250
-0.270
-0.285
-0.290
-0.275
-0.255
-0.270
-0.290
-0.305
-0.305
-0.290
-0.280
-0.295
-0.320
-0.340
-0.350
-0.340
-0.330
-0.350
-0.370
-0.365
-0.360
-0.345
-0.355
-0.335
-0.355
-0.370
-0.360
-0.340
-0.320
-0.325
-0.345
-0.360
-0.370
-0.380
-0.365
-0.345
-0.350
-0.375
-0.375
-0.370
-0.330
-0.315
-0.295
-0.285
-0.245
-0.225
-0.230
-0.205
-0.215
-0.210
-0.190
-0.180
-0.185
-0.175
-0.140
-0.130
-0.140
-0.165
-0.180
-0.190
-0.205
-0.200
-0.230
-0.260
-0.300
-0.310
-0.270
-0.245
-0.210
-0.165
-0.110
-0.065
-0.035
0.025
0.115
0.215
0.320
0.370
0.415
0.475
0.545
0.640
0.755
0.890
0.985
1.060
1.130
1.210
1.255
1.265
1.275
1.255
1.265
1.320
1.435
1.525
1.555
1.590
1.625
1.640
1.580
1.365
1.035
0.690
0.405
0.165
-0.045
-0.215
-0.345
-0.470
-0.530
-0.565
-0.600
-0.630
-0.650
-0.685
-0.705
-0.720
-0.710
-0.710
-0.745
-0.795
-0.820
-0.815
-0.800
-0.805
-0.820
-0.835
-0.865
-0.855
-0.840
-0.865
-0.895
-0.910
-0.885
-0.870
-0.860
-0.880
-0.895
-0.920
-0.950
-0.940
-0.930
-0.940
-0.950
-0.965
-0.970
-0.975
-0.975
-0.995
-1.010
-1.030
-1.030
-1.045
-1.045
-1.045
-1.040
-1.070
-1.075
-1.060
-1.065
-1.065
-1.085
-1.105
-1.110
-1.095
-1.080
-1.065
-1.070
-1.075
-1.075
-1.055
-1.030
-1.015
-1.005
-1.010
-0.995
-0.980
-0.950
-0.910
-0.885
-0.885
-0.860
-0.840
-0.800
-0.755
-0.755
-0.735
-0.705
-0.650
-0.600
-0.580
-0.545
-0.515
-0.495
-0.460
-0.435
-0.410
-0.390
-0.390
-0.395
-0.380
-0.365
-0.365
-0.385
-0.405
-0.415
-0.430
-0.435
-0.425
-0.435
-0.450
-0.440
-0.440
-0.420
-0.430
-0.435
-0.445
-0.460
-0.435
-0.420
-0.415
-0.405
-0.425
-0.440
-0.435
-0.410
-0.385
-0.355
-0.340
-0.350
-0.335
-0.310
-0.295
-0.325
-0.380
-0.395
-0.385
-0.370
-0.350
-0.355
-0.375
-0.380
-0.360
-0.345
-0.355
-0.355
-0.325
-0.285
-0.260
-0.255
-0.260
-0.250
-0.235
-0.215
-0.240
-0.225
-0.225
-0.225
-0.235
-0.240
-0.225
-0.210
-0.215
-0.265
-0.315
-0.330
-0.340
-0.335
-0.340
-0.370
-0.370
-0.395
-0.395
-0.390
-0.390
-0.395
-0.385
-0.365
-0.365
-0.375
-0.360
-0.365
-0.370
-0.380
-0.380
-0.370
-0.345
-0.325
-0.320
-0.310
-0.300
-0.300
-0.315
-0.320
-0.300
-0.250
-0.160
-0.025
0.155
0.375
0.615
0.860
1.070
1.215
1.225
1.005
0.635
0.255
-0.020
-0.155
-0.195
-0.200
-0.235
-0.275
-0.295
-0.250
-0.180
-0.170
-0.180
-0.185
-0.185
-0.195
-0.185
-0.170
-0.180
-0.175
-0.150
-0.140
-0.135
-0.160
-0.210
-0.250
-0.260
-0.260
-0.250
-0.250
-0.245
-0.235
-0.220
-0.200
-0.205
-0.220
-0.240
-0.250
-0.255
-0.255
-0.255
-0.280
-0.280
-0.270
-0.260
-0.250
-0.265
-0.245
-0.235
-0.220
-0.200
-0.180
-0.165
-0.170
-0.200
-0.195
-0.195
-0.180
-0.150
-0.135
-0.135
-0.120
-0.105
-0.090
-0.065
-0.055
-0.050
-0.045
-0.030
-0.015
-0.005
0.005
-0.005
0.000
0.015
0.060
0.080
0.080
0.065
0.085
0.085
0.095
0.100
0.100
0.100
0.115
0.110
0.110
0.110
0.110
0.105
0.105
0.125
0.155
0.160
0.140
0.105
0.070
0.075
0.075
0.060
0.030
-0.020
-0.040
-0.055
-0.040
-0.030
-0.075
-0.095
-0.100
-0.070
-0.085
-0.100
-0.110
-0.145
-0.185
-0.195
-0.175
-0.175
-0.195
-0.210
-0.220
-0.225
-0.210
-0.215
-0.215
-0.225
-0.240
-0.255
-0.235
-0.225
-0.235
-0.235
-0.245
-0.235
-0.230
-0.205
-0.210
-0.190
-0.185
-0.175
-0.170
-0.125
-0.100
-0.110
-0.120
-0.095
-0.040
-0.010
0.025
0.040
0.045
0.060
0.070
0.075
0.055
0.020
-0.020
0.000
0.005
0.005
-0.035
-0.100
-0.125
-0.150
-0.140
-0.135
-0.150
-0.175
-0.195
-0.190
-0.190
-0.175
-0.165
-0.185
-0.190
-0.185
-0.190
-0.185
-0.185
-0.200
-0.200
-0.185
-0.185
-0.200
-0.210
-0.180
-0.130
-0.030
0.095
0.255
0.475
0.750
1.070
1.390
1.665
1.840
1.800
1.530
1.120
0.695
0.330
0.105
-0.050
-0.175
-0.275
-0.305
-0.270
-0.255
-0.275
-0.305
-0.330
-0.340
-0.345
-0.370
-0.385
-0.410
-0.435
-0.430
-0.420
-0.415
-0.425
-0.450
-0.465
-0.445
-0.445
-0.410
-0.390
-0.405
-0.420
-0.415
-0.405
-0.405
-0.405
-0.440
-0.430
-0.430
-0.400
-0.385
-0.390
-0.405
-0.395
-0.420
-0.390
-0.365
-0.390
-0.385
-0.385
-0.375
-0.340
-0.330
-0.340
-0.350
-0.350
-0.325
-0.320
-0.305
-0.305
-0.305
-0.310
-0.310
-0.305
-0.305
-0.330
-0.345
-0.365
-0.365
-0.330
-0.310
-0.315
-0.345
-0.350
-0.355
-0.340
-0.355
-0.355
-0.360
-0.375
-0.370
-0.355
-0.325
-0.305
-0.295
-0.285
-0.280
-0.260
-0.240
-0.245
-0.270
-0.285
-0.300
-0.275
-0.270
-0.275
-0.305
-0.315
-0.305
-0.275
-0.250
-0.265
-0.290
-0.315
-0.295
-0.305
-0.330
-0.340
-0.345
-0.350
-0.345
-0.330
-0.315
-0.335
-0.340
-0.350
-0.350
-0.345
-0.335
-0.355
-0.365
-0.370
-0.390
-0.365
-0.340
-0.355
-0.385
-0.380
-0.355
-0.320
-0.315
-0.320
-0.315
-0.320
-0.315
-0.285
-0.260
-0.260
-0.255
-0.255
-0.225
-0.210
-0.190
-0.210
-0.220
-0.245
-0.230
-0.225
-0.230
-0.245
-0.275
-0.295
-0.310
-0.315
-0.325
-0.340
-0.330
-0.300
-0.245
-0.195
-0.155
-0.095
-0.050
0.000
0.095
0.200
0.295
0.355
0.400
0.470
0.550
0.645
0.710
0.770
0.840
0.915
0.965
1.015
1.085
1.155
1.250
1.340
1.420
1.495
1.550
1.605
1.655
1.685
1.725
1.725
1.570
1.205
0.770
0.395
0.095
-0.120
-0.250
-0.380
-0.475
-0.550
-0.600
-0.625
-0.655
-0.660
-0.685
-0.720
-0.750
-0.730
-0.735
-0.760
-0.775
-0.790
-0.795
-0.790
-0.780
-0.785
-0.820
-0.845
-0.835
-0.810
-0.810
-0.815
-0.845
-0.885
-0.900
-0.870
-0.855
-0.845
-0.860
-0.900
-0.915
-0.910
-0.900
-0.920
-0.930
-0.930
-0.940
-0.930
-0.945
-0.955
-0.975
-0.980
-0.980
-0.990
-0.970
-0.985
-1.005
-1.030
-1.015
-1.025
-1.015
-1.030
-1.050
-1.060
-1.065
-1.030
-1.015
-1.030
-1.050
-1.060
-1.055
-1.030
-1.010
-1.015
-1.050
-1.055
-1.030
-1.000
-0.970
-0.965
-0.955
-0.930
-0.900
-0.865
-0.815
-0.775
-0.775
-0.760
-0.735
-0.705
-0.685
-0.650
-0.645
-0.630
-0.615
-0.580
-0.545
-0.540
-0.545
-0.560
-0.555
-0.560
-0.550
-0.500
-0.505
-0.525
-0.535
-0.510
-0.495
-0.505
-0.510
-0.500
-0.500
-0.475
-0.480
-0.485
-0.490
-0.495
-0.475
-0.450
-0.465
-0.475
-0.505
-0.500
-0.470
-0.455
-0.445
-0.435
-0.440
-0.435
-0.425
-0.415
-0.390
-0.400
-0.415
-0.405
-0.395
-0.365
-0.345
-0.340
-0.360
-0.340
-0.310
-0.270
-0.235
-0.240
-0.235
-0.240
-0.245
-0.245
-0.245
-0.265
-0.305
-0.330
-0.330
-0.330
-0.345
-0.365
-0.390
-0.405
-0.400
-0.390
-0.400
-0.430
-0.465
-0.480
-0.455
-0.450
-0.435
-0.445
-0.475
-0.480
-0.470
-0.460
-0.450
-0.475
-0.485
-0.480
-0.475
-0.460
-0.455
-0.505
-0.510
-0.520
-0.490
-0.395
-0.270
-0.120
0.080
0.345
0.650
0.930
1.175
1.315
1.230
0.935
0.510
0.095
-0.245
-0.410
-0.470
-0.485
-0.500
-0.475
-0.460
-0.445
-0.445
-0.455
-0.465
-0.455
-0.435
-0.435
-0.445
-0.455
-0.475
-0.470
-0.470
-0.475
-0.485
-0.495
-0.500
-0.495
-0.485
-0.480
-0.490
-0.485
-0.470
-0.440
-0.430
-0.425
-0.450
-0.465
-0.450
-0.440
-0.410
-0.415
-0.430
-0.435
-0.425
-0.410
-0.390
-0.385
-0.390
-0.395
-0.410
-0.380
-0.345
-0.340
-0.340
-0.335
-0.305
-0.285
-0.275
-0.280
-0.300
-0.310
-0.285
-0.260
-0.230
-0.230
-0.235
-0.250
-0.235
-0.245
-0.220
-0.205
-0.200
-0.190
-0.180
-0.160
-0.175
-0.170
-0.195
-0.220
-0.195
-0.150
-0.135
-0.145
-0.165
-0.165
-0.155
-0.140
-0.130
-0.135
-0.145
-0.165
-0.150
-0.145
-0.150
-0.170
-0.195
-0.220
-0.220
-0.235
-0.245
-0.270
-0.295
-0.320
-0.335
-0.340
-0.325
-0.305
-0.305
-0.330
-0.345
-0.360
-0.375
-0.380
-0.410
-0.440
-0.435
-0.395
-0.385
-0.385
-0.395
-0.410
-0.420
-0.395
-0.385
-0.400
-0.415
-0.420
-0.435
-0.415
-0.400
-0.410
-0.410
-0.415
-0.420
-0.395
-0.390
-0.390
-0.375
-0.370
-0.360
-0.340
-0.330
-0.325
-0.330
-0.310
-0.270
-0.260
-0.270
-0.280
-0.290
-0.305
-0.295
-0.300
-0.285
-0.295
-0.320
-0.350
-0.365
-0.380
-0.390
-0.405
-0.445
-0.470
-0.470
-0.465
-0.440
-0.455
-0.475
-0.480
-0.480
-0.465
-0.450
-0.470
-0.490
-0.510
-0.495
-0.465
-0.455
-0.455
-0.480
-0.510
-0.495
-0.485
-0.475
-0.450
-0.390
-0.270
-0.090
0.185
0.470
0.780
1.015
1.220
1.290
1.125
0.740
0.290
-0.150
-0.445
-0.540
-0.510
-0.480
-0.475
-0.530
-0.525
-0.500
-0.490
-0.490
-0.505
-0.540
-0.535
-0.530
-0.510
-0.505
-0.510
-0.530
-0.530
-0.535
-0.530
-0.530
-0.525
-0.545
-0.560
-0.555
-0.530
-0.515
-0.505
-0.510
-0.510
-0.505
-0.510
-0.485
-0.490
-0.510
-0.515
-0.500
-0.475
-0.455
-0.470
-0.520
-0.515
-0.490
-0.460
-0.425
-0.405
-0.435
-0.450
-0.445
-0.410
-0.380
-0.365
-0.375
-0.390
-0.390
-0.380
-0.365
-0.345
-0.340
-0.340
-0.325
-0.320
-0.330
-0.325
-0.345
-0.350
-0.320
-0.330
-0.295
-0.295
-0.310
-0.315
-0.305
-0.325
-0.340
-0.340
-0.330
-0.330
-0.325
-0.310
-0.315
-0.325
-0.345
-0.345
-0.355
-0.325
-0.325
-0.340
-0.355
-0.390
-0.390
-0.395
-0.395
-0.425
-0.455
-0.465
-0.485
-0.450
-0.425
-0.435
-0.455
-0.475
-0.485
-0.460
-0.450
-0.450
-0.460
-0.475
-0.470
-0.450
-0.440
-0.420
-0.455
-0.465
-0.445
-0.435
-0.430
-0.440
-0.455
-0.470
-0.470
-0.470
-0.440
-0.390
-0.360
-0.375
-0.365
-0.370
-0.350
-0.320
-0.315
-0.310
-0.300
-0.290
-0.270
-0.280
-0.325
-0.335
-0.345
-0.315
-0.310
-0.335
-0.355
-0.390
-0.425
-0.420
-0.420
-0.420
-0.450
-0.485
-0.500
-0.500
-0.495
-0.500
-0.520
-0.520
-0.515
-0.485
-0.455
-0.455
-0.495
-0.500
-0.490
-0.460
-0.450
-0.460
-0.475
-0.495
-0.490
-0.445
-0.340
-0.210
-0.035
0.220
0.530
0.870
1.170
1.365
1.430
1.245
0.895
0.475
0.065
-0.270
-0.460
-0.500
-0.465
-0.470
-0.500
-0.545
-0.550
-0.530
-0.470
-0.440
-0.450
-0.475
-0.525
-0.525
-0.510
-0.520
-0.520
-0.510
-0.520
-0.510
-0.510
-0.505
-0.495
-0.515
-0.520
-0.545
-0.550
-0.525
-0.510
-0.515
-0.520
-0.525
-0.520
-0.500
-0.470
-0.460
-0.470
-0.485
-0.475
-0.465
-0.475
-0.480
-0.490
-0.480
-0.460
-0.430
-0.410
-0.420
-0.435
-0.455
-0.430
-0.390
-0.375
-0.360
-0.355
-0.380
-0.370
-0.365
-0.340
-0.325
-0.315
-0.305
-0.295
-0.280
-0.250
-0.260
-0.260
-0.275
-0.285
-0.265
-0.265
-0.250
-0.260
-0.265
-0.260
-0.235
-0.225
-0.235
-0.250
-0.245
-0.245
-0.230
-0.220
-0.230
-0.235
-0.265
-0.275
-0.280
-0.280
-0.295
-0.330
-0.360
-0.355
-0.335
-0.320
-0.335
-0.370
-0.395
-0.405
-0.380
-0.370
-0.375
-0.415
-0.440
-0.435
-0.435
-0.415
-0.405
-0.395
-0.420
-0.425
-0.400
-0.380
-0.375
-0.395
-0.430
-0.440
-0.445
-0.435
-0.415
-0.410
-0.415
-0.405
-0.395
-0.350
-0.325
-0.325
-0.305
-0.310
-0.305
-0.320
-0.285
-0.270
-0.275
-0.250
-0.250
-0.260
-0.260
-0.270
-0.270
-0.265
-0.255
-0.255
-0.255
-0.270
-0.320
-0.365
-0.380
-0.385
-0.405
-0.415
-0.435
-0.440
-0.425
-0.435
-0.425
-0.455
-0.460
-0.480
-0.480
-0.450
-0.425
-0.430
-0.440
-0.445
-0.440
-0.430
-0.435
-0.470
-0.515
-0.495
-0.395
-0.245
-0.055
0.175
0.445
0.720
0.980
1.205
1.315
1.160
0.785
0.320
-0.085
-0.380
-0.490
-0.510
-0.510
-0.535
-0.520
-0.485
-0.440
-0.450
-0.460
-0.485
-0.490
-0.470
-0.475
-0.505
-0.520
-0.515
-0.505
-0.495
-0.475
-0.465
-0.465
-0.470
-0.455
-0.455
-0.465
-0.480
-0.480
-0.460
-0.460
-0.440
-0.445
-0.470
-0.495
-0.475
-0.425
-0.390
-0.395
-0.430
-0.465
-0.455
-0.450
-0.405
-0.385
-0.380
-0.385
-0.380
-0.390
-0.370
-0.365
-0.345
-0.345
-0.330
-0.305
-0.295
-0.305
-0.295
-0.295
-0.275
-0.255
-0.270
-0.275
-0.295
-0.285
-0.285
-0.265
-0.245
-0.235
-0.255
-0.260
-0.265
-0.250
-0.235
-0.235
-0.255
-0.260
-0.250
-0.220
-0.220
-0.230
-0.260
-0.290
-0.305
-0.305
-0.280
-0.280
-0.300
-0.320
-0.350
-0.360
-0.380
-0.380
-0.395
-0.390
-0.385
-0.390
-0.400
-0.390
-0.390
-0.415
-0.400
-0.405
-0.380
-0.370
-0.370
-0.375
-0.360
-0.370
-0.375
-0.370
-0.400
-0.395
-0.390
-0.375
-0.335
-0.320
-0.340
-0.345
-0.315
-0.280
-0.260
-0.265
-0.275
-0.250
-0.215
-0.180
-0.175
-0.180
-0.195
-0.205
-0.215
-0.225
-0.245
-0.250
-0.280
-0.300
-0.320
-0.325
-0.315
-0.320
-0.350
-0.385
-0.385
-0.375
-0.360
-0.370
-0.390
-0.410
-0.410
-0.390
-0.370
-0.350
-0.375
-0.370
-0.385
-0.380
-0.370
-0.370
-0.395
-0.400
-0.410
-0.405
-0.340
-0.245
-0.135
0.000
0.200
0.440
0.715
0.995
1.250
1.450
1.445
1.225
0.885
0.565
0.275
0.085
-0.040
-0.195
-0.380
-0.505
-0.555
-0.515
-0.445
-0.415
-0.425
-0.460
-0.470
-0.435
-0.410
-0.380
-0.385
-0.380
-0.355
-0.290
-0.235
-0.240
-0.345
-0.425
-0.485
-0.410
-0.295
-0.195
-0.105
-0.100
-0.155
-0.215
-0.205
-0.185
-0.180
-0.190
-0.200
-0.215
-0.165
-0.090
-0.075
-0.150
-0.220
-0.255
-0.295
-0.365
-0.455
-0.470
-0.435
-0.385
-0.330
-0.305
-0.210
-0.080
0.000
-0.020
-0.070
-0.140
-0.175
-0.155
-0.075
0.045
0.140
0.140
0.050
-0.065
-0.160
-0.175
-0.095
0.015
0.080
0.100
0.065
0.030
0.025
0.065
0.130
0.225
0.305
0.315
0.215
0.075
0.000
0.060
0.190
0.235
0.125
-0.010
-0.035
0.060
0.135
0.140
0.085
0.025
0.010
0.020
0.040
0.065
0.095
0.070
-0.035
-0.090
-0.030
0.115
0.255
0.250
0.125
-0.040
-0.175
-0.200
-0.130
-0.035
0.065
0.180
0.245
0.190
0.040
-0.075
-0.090
-0.110
-0.140
-0.130
0.020
0.215
0.350
0.325
0.215
0.120
0.100
0.095
0.115
0.195
0.285
0.315
0.395
0.490
0.275
-0.250
-0.670
-0.735
-0.590
-0.415
-0.235
-0.120
-0.080
-0.050
-0.035
-0.160
-0.415
-0.595
-0.550
-0.355
-0.225
-0.190
-0.165
-0.295
-0.570
-0.720
-0.560
-0.280
-0.190
-0.280
-0.275
-0.050
0.155
-0.020
-0.520
-0.775
-0.530
-0.170
0.005
0.055
0.035
0.045
0.145
0.205
0.050
-0.070
0.015
0.175
0.315
0.490
0.615
0.585
0.665
1.085
1.605
2.035
2.310
2.465
2.350
1.865
1.245
0.700
0.350
0.075
-0.110
-0.170
-0.130
-0.130
-0.125
-0.130
-0.295
-0.430
-0.225
0.150
0.210
-0.250
-0.890
-1.180
-1.010
-0.675
-0.445
-0.400
-0.510
-0.665
-0.730
-0.615
-0.495
-0.505
-0.610
-0.640
-0.580
-0.570
-0.560
-0.575
-0.585
-0.600
-0.635
-0.660
-0.680
-0.665
-0.610
-0.580
-0.635
-0.700
-0.695
-0.645
-0.565
-0.465
-0.335
-0.225
-0.210
-0.370
-0.585
-0.805
-0.920
-0.785
-0.605
-0.570
-0.690
-0.765
-0.710
-0.560
-0.485
-0.480
-0.500
-0.460
-0.385
-0.405
-0.505
-0.610
-0.625
-0.525
-0.475
-0.495
-0.530
-0.565
-0.590
-0.595
-0.550
-0.480
-0.405
-0.385
-0.370
-0.330
-0.375
-0.540
-0.670
-0.615
-0.485
-0.380
-0.375
-0.410
-0.420
-0.335
-0.205
-0.230
-0.490
-0.650
-0.540
-0.400
-0.360
-0.450
-0.535
-0.505
-0.340
-0.255
-0.360
-0.505
-0.515
-0.420
-0.330
-0.355
-0.460
-0.545
-0.495
-0.350
-0.295
-0.400
-0.555
-0.545
-0.355
-0.285
-0.465
-0.565
-0.425
-0.345
-0.500
-0.640
-0.595
-0.430
-0.245
-0.205
-0.410
-0.635
-0.640
-0.420
-0.230
-0.245
-0.455
-0.630
-0.615
-0.430
-0.320
-0.360
-0.460
-0.515
-0.425
-0.340
-0.320
-0.350
-0.400
-0.435
-0.400
-0.305
-0.200
-0.185
-0.200
-0.230
-0.250
-0.270
-0.270
-0.285
-0.320
-0.295
-0.340
-0.470
-0.470
-0.435
-0.465
-0.535
-0.550
-0.565
-0.510
-0.455
-0.430
-0.460
-0.525
-0.535
-0.485
-0.490
-0.510
-0.480
-0.380
-0.265
-0.290
-0.500
-0.675
-0.645
-0.440
-0.270
-0.245
-0.355
-0.545
-0.455
-0.265
-0.390
-0.665
-0.635
-0.230
0.260
0.645
0.945
1.270
1.455
1.295
0.870
0.460
0.165
-0.005
-0.090
-0.185
-0.365
-0.525
-0.510
-0.365
-0.225
-0.195
-0.220
-0.370
-0.585
-0.665
-0.585
-0.475
-0.415
-0.420
-0.410
-0.365
-0.275
-0.290
-0.450
-0.590
-0.590
-0.465
-0.360
-0.350
-0.450
-0.475
-0.330
-0.200
-0.335
-0.640
-0.800
-0.665
-0.445
-0.290
-0.280
-0.280
-0.320
-0.380
-0.380
-0.365
-0.415
-0.460
-0.385
-0.345
-0.445
-0.525
-0.410
-0.180
-0.105
-0.250
-0.380
-0.310
-0.165
-0.255
-0.485
-0.500
-0.270
-0.150
-0.220
-0.275
-0.120
0.020
-0.125
-0.390
-0.445
-0.295
-0.120
-0.030
-0.010
-0.045
-0.135
-0.295
-0.380
-0.315
-0.220
-0.120
-0.050
-0.110
-0.190
-0.160
-0.080
-0.030
-0.100
-0.250
-0.335
-0.240
-0.115
-0.045
0.005
0.035
0.015
-0.095
-0.270
-0.320
-0.140
-0.025
-0.220
-0.515
-0.545
-0.285
-0.125
-0.210
-0.355
-0.420
-0.385
-0.310
-0.205
-0.145
-0.260
-0.450
-0.485
-0.400
-0.350
-0.315
-0.265
-0.275
-0.315
-0.310
-0.265
-0.245
-0.245
-0.230
-0.220
-0.295
-0.455
-0.465
-0.295
-0.170
-0.230
-0.380
-0.475
-0.360
-0.160
-0.070
-0.125
-0.275
-0.370
-0.315
-0.125
0.040
0.010
-0.180
-0.380
-0.410
-0.290
-0.200
-0.205
-0.230
-0.250
-0.320
-0.420
-0.430
-0.345
-0.240
-0.180
-0.180
-0.245
-0.315
-0.335
-0.325
-0.320
-0.340
-0.415
-0.510
-0.510
-0.440
-0.375
-0.340
-0.345
-0.340
-0.320
-0.270
-0.245
-0.255
-0.280
-0.280
-0.305
-0.355
-0.400
-0.330
-0.210
-0.145
-0.105
0.065
0.380
0.725
0.990
1.200
1.370
1.365
1.160
0.840
0.540
0.255
-0.115
-0.430
-0.490
-0.410
-0.355
-0.335
-0.345
-0.335
-0.320
-0.295
-0.270
-0.305
-0.390
-0.445
-0.425
-0.400
-0.460
-0.475
-0.435
-0.355
-0.295
-0.310
-0.415
-0.510
-0.470
-0.400
-0.380
-0.420
-0.460
-0.480
-0.445
-0.395
-0.365
-0.385
-0.420
-0.445
-0.410
-0.360
-0.335
-0.390
-0.425
-0.395
-0.325
-0.305
-0.355
-0.390
-0.380
-0.335
-0.340
-0.365
-0.380
-0.385
-0.375
-0.350
-0.310
-0.275
-0.285
-0.320
-0.335
-0.340
-0.340
-0.335
-0.300
-0.275
-0.280
-0.300
-0.305
-0.280
-0.295
-0.275
-0.250
-0.170
-0.115
-0.110
-0.175
-0.210
-0.260
-0.235
-0.220
-0.230
-0.225
-0.210
-0.245
-0.265
-0.220
-0.185
-0.185
-0.240
-0.255
-0.240
-0.215
-0.210
-0.225
-0.260
-0.295
-0.300
-0.310
-0.345
-0.390
-0.440
-0.465
-0.450
-0.405
-0.390
-0.390
-0.390
-0.420
-0.420
-0.420
-0.405
-0.410
-0.420
-0.420
-0.435
-0.455
-0.440
-0.440
-0.475
-0.510
-0.505
-0.475
-0.445
-0.450
-0.460
-0.470
-0.450
-0.430
-0.385
-0.385
-0.410
-0.405
-0.410
-0.425
-0.410
-0.415
-0.385
-0.360
-0.330
-0.285
-0.230
-0.240
-0.290
-0.310
-0.300
-0.240
-0.195
-0.215
-0.270
-0.320
-0.375
-0.380
-0.375
-0.370
-0.390
-0.415
-0.445
-0.465
-0.470
-0.470
-0.495
-0.510
-0.500
-0.490
-0.500
-0.535
-0.580
-0.605
-0.590
-0.570
-0.545
-0.550
-0.550
-0.530
-0.505
-0.465
-0.425
-0.420
-0.470
-0.555
-0.595
-0.580
-0.535
-0.530
-0.535
-0.530
-0.500
-0.405
-0.220
0.000
0.255
0.505
0.725
0.925
1.025
0.935
0.585
0.150
-0.250
-0.525
-0.600
-0.600
-0.605
-0.610
-0.605
-0.575
-0.520
-0.520
-0.535
-0.555
-0.555
-0.525
-0.495
-0.470
-0.510
-0.565
-0.605
-0.625
-0.585
-0.560
-0.530
-0.530
-0.550
-0.570
-0.585
-0.585
-0.585
-0.590
-0.580
-0.575
-0.560
-0.555
-0.545
-0.540
-0.530
-0.515
-0.525
-0.535
-0.560
-0.555
-0.545
-0.510
-0.480
-0.460
-0.475
-0.470
-0.470
-0.445
-0.410
-0.400
-0.415
-0.440
-0.445
-0.420
-0.380
-0.360
-0.355
-0.375
-0.395
-0.395
-0.380
-0.370
-0.375
-0.375
-0.365
-0.345
-0.330
-0.300
-0.295
-0.310
-0.300
-0.305
-0.295
-0.290
-0.295
-0.315
-0.310
-0.320
-0.295
-0.290
-0.295
-0.315
-0.305
-0.310
-0.280
-0.275
-0.285
-0.285
-0.295
-0.305
-0.305
-0.300
-0.330
-0.370
-0.390
-0.380
-0.350
-0.345
-0.365
-0.395
-0.400
-0.385
-0.395
-0.400
-0.410
-0.425
-0.440
-0.440
-0.425
-0.420
-0.435
-0.460
-0.450
-0.435
-0.420
-0.400
-0.415
-0.420
-0.405
-0.400
-0.390
-0.385
-0.385
-0.390
-0.405
-0.370
-0.345
-0.335
-0.335
-0.350
-0.335
-0.315
-0.290
-0.255
-0.260
-0.260
-0.240
-0.195
-0.175
-0.160
-0.175
-0.180
-0.165
-0.165
-0.150
-0.150
-0.175
-0.175
-0.160
-0.135
-0.130
-0.170
-0.190
-0.215
-0.225
-0.220
-0.225
-0.235
-0.255
-0.290
-0.305
-0.290
-0.295
-0.295
-0.295
-0.315
-0.320
-0.295
-0.265
-0.255
-0.270
-0.280
-0.290
-0.285
-0.265
-0.250
-0.260
-0.280
-0.285
-0.285
-0.255
-0.200
-0.120
-0.020
0.145
0.345
0.615
0.875
1.105
1.255
1.325
1.135
0.745
0.290
-0.110
-0.360
-0.425
-0.370
-0.295
-0.260
-0.250
-0.230
-0.200
-0.170
-0.170
-0.175
-0.195
-0.220
-0.215
-0.210
-0.185
-0.170
-0.185
-0.185
-0.190
-0.170
-0.150
-0.135
-0.140
-0.155
-0.140
-0.140
-0.135
-0.140
-0.135
-0.150
-0.125
-0.120
-0.090
-0.080
-0.080
-0.075
-0.065
-0.060
-0.030
-0.020
-0.030
-0.035
-0.040
-0.020
0.000
0.015
0.010
0.000
0.025
0.065
0.090
0.100
0.085
0.080
0.100
0.135
0.165
0.160
0.160
0.145
0.145
0.140
0.165
0.180
0.185
0.175
0.200
0.220
0.235
0.230
0.225
0.205
0.205
0.220
0.235
0.220
0.210
0.195
0.190
0.200
0.220
0.250
0.240
0.225
0.220
0.220
0.200
0.185
0.165
0.140
0.130
0.130
0.145
0.125
0.100
0.075
0.090
0.100
0.105
0.110
0.075
0.060
0.065
0.070
0.080
0.070
0.050
0.050
0.070
0.065
0.045
0.055
0.065
0.085
0.075
0.075
0.100
0.095
0.080
0.070
0.095
0.125
0.145
0.160
0.145
0.160
0.170
0.200
0.225
0.250
0.275
0.280
0.275
0.290
0.305
0.305
0.275
0.240
0.225
0.250
0.255
0.230
0.205
0.160
0.160
0.140
0.155
0.135
0.105
0.105
0.100
0.100
0.100
0.090
0.075
0.045
0.050
0.055
0.090
0.080
0.080
0.025
0.025
0.060
0.090
0.080
0.065
0.025
0.020
0.075
0.195
0.345
0.500
0.730
0.990
1.295
1.600
1.840
1.935
1.760
1.365
0.930
0.525
0.240
0.075
0.020
0.025
0.050
0.065
0.095
0.115
0.120
0.130
0.125
0.135
0.110
0.095
0.055
0.080
0.100
0.130
0.150
0.140
0.135
0.155
0.160
0.155
0.155
0.150
0.140
0.140
0.145
0.150
0.160
0.165
0.155
0.175
0.195
0.210
0.215
0.210
0.220
0.230
0.210
0.225
0.230
0.230
0.245
0.240
0.260
0.295
0.320
0.320
0.330
0.320
0.365
0.390
0.400
0.390
0.365
0.385
0.405
0.450
0.480
0.465
0.435
0.435
0.465
0.495
0.510
0.510
0.505
0.510
0.525
0.525
0.545
0.510
0.495
0.495
0.490
0.490
0.505
0.495
0.495
0.490
0.480
0.490
0.485
0.445
0.385
0.385
0.385
0.390
0.380
0.365
0.345
0.345
0.340
0.350
0.335
0.305
0.280
0.260
0.275
0.295
0.280
0.265
0.275
0.295
0.300
0.320
0.310
0.295
0.265
0.290
0.315
0.340
0.345
0.340
0.320
0.325
0.335
0.350
0.375
0.390
0.375
0.375
0.410
0.445
0.450
0.440
0.435
0.465
0.505
0.550
0.555
0.540
0.520
0.510
0.540
0.555
0.555
0.550
0.520
0.495
0.490
0.485
0.485
0.465
0.440
0.425
0.410
0.385
0.380
0.365
0.360
0.335
0.330
0.335
0.355
0.365
0.355
0.350
0.350
0.355
0.345
0.315
0.285
0.305
0.335
0.335
0.315
0.280
0.235
0.295
0.400
0.560
0.740
0.935
1.165
1.460
1.770
2.035
2.205
2.175
1.880
1.445
1.010
0.655
0.460
0.385
0.350
0.335
0.310
0.305
0.325
0.335
0.315
0.305
0.305
0.325
0.320
0.315
0.305
0.315
0.320
0.340
0.345
0.340
0.325
0.345
0.345
0.380
0.360
0.340
0.325
0.325
0.345
0.360
0.365
0.355
0.340
0.365
0.395
0.425
0.450
0.410
0.400
0.415
0.440
0.475
0.505
0.510
0.490
0.500
0.520
0.560
0.585
0.575
0.565
0.570
0.600
0.630
0.655
0.655
0.635
0.635
0.640
0.665
0.690
0.680
0.665
0.665
0.680
0.725
0.730
0.715
0.700
0.700
0.705
0.710
0.700
0.680
0.680
0.675
0.705
0.715
0.730
0.710
0.685
0.700
0.725
0.740
0.745
0.705
0.675
0.670
0.660
0.640
0.620
0.610
0.600
0.595
0.590
0.605
0.590
0.575
0.555
0.550
0.545
0.555
0.550
0.530
0.535
0.530
0.545
0.560
0.560
0.540
0.525
0.525
0.540
0.580
0.590
0.555
0.510
0.510
0.550
0.570
0.570
0.575
0.585
0.595
0.630
0.655
0.680
0.670
0.655
0.665
0.680
0.720
0.745
0.725
0.725
0.735
0.740
0.745
0.740
0.725
0.680
0.665
0.680
0.675
0.655
0.615
0.570
0.540
0.555
0.575
0.575
0.565
0.545
0.555
0.555
0.550
0.540
0.545
0.555
0.545
0.545
0.545
0.545
0.520
0.540
0.550
0.570
0.565
0.550
0.530
0.500
0.540
0.655
0.820
1.035
1.260
1.495
1.765
2.050
2.275
2.390
2.260
1.930
1.520
1.125
0.825
0.660
0.585
0.535
0.490
0.505
0.560
0.585
0.570
0.535
0.520
0.535
0.540
0.545
0.545
0.555
0.555
0.560
0.555
0.565
0.550
0.530
0.540
0.540
0.555
0.560
0.550
0.555
0.565
0.570
0.585
0.595
0.580
0.560
0.565
0.575
0.595
0.600
0.595
0.600
0.605
0.625
0.645
0.645
0.645
0.625
0.650
0.650
0.690
0.665
0.655
0.665
0.670
0.700
0.715
0.725
0.725
0.740
0.730
0.735
0.750
0.750
0.730
0.745
0.745
0.745
0.760
0.760
0.750
0.745
0.750
0.770
0.785
0.780
0.770
0.775
0.785
0.800
0.815
0.805
0.780
0.770
0.765
0.750
0.770
0.765
0.735
0.715
0.705
0.695
0.695
0.700
0.675
0.635
0.615
0.630
0.640
0.630
0.605
0.590
0.590
0.605
0.635
0.645
0.635
0.610
0.595
0.615
0.630
0.635
0.615
0.595
0.590
0.620
0.630
0.625
0.620
0.600
0.595
0.600
0.625
0.620
0.615
0.615
0.620
0.650
0.685
0.690
0.685
0.685
0.690
0.720
0.740
0.765
0.760
0.755
0.760
0.765
0.760
0.745
0.715
0.690
0.670
0.680
0.680
0.670
0.620
0.585
0.590
0.580
0.585
0.570
0.550
0.535
0.515
0.520
0.525
0.505
0.500
0.485
0.475
0.500
0.515
0.525
0.500
0.485
0.485
0.495
0.510
0.495
0.485
0.455
0.470
0.505
0.625
0.785
0.985
1.215
1.485
1.805
2.100
2.290
2.380
2.345
2.105
1.755
1.360
0.995
0.770
0.655
0.575
0.520
0.510
0.515
0.515
0.500
0.490
0.480
0.475
0.485
0.470
0.475
0.465
0.470
0.465
0.480
0.470
0.455
0.435
0.450
0.480
0.510
0.490
0.460
0.445
0.445
0.455
0.465
0.465
0.430
0.410
0.420
0.450
0.465
0.470
0.465
0.450
0.450
0.470
0.450
0.400
0.375
0.410
0.455
0.480
0.475
0.460
0.440
0.425
0.450
0.470
0.475
0.480
0.470
0.480
0.470
0.470
0.470
0.455
0.460
0.460
0.475
0.490
0.490
0.465
0.450
0.445
0.455
0.460
0.475
0.480
0.485
0.495
0.505
0.515
0.540
0.545
0.555
0.555
0.570
0.575
0.585
0.560
0.565
0.555
0.575
0.590
0.575
0.545
0.520
0.515
0.515
0.540
0.535
0.505
0.500
0.520
0.505
0.520
0.520
0.500
0.505
0.485
0.485
0.485
0.500
0.490
0.480
0.460
0.480
0.485
0.485
0.470
0.450
0.440
0.440
0.425
0.420
0.390
0.370
0.355
0.370
0.385
0.395
0.385
0.400
0.430
0.450
0.470
0.480
0.480
0.495
0.515
0.530
0.550
0.575
0.565
0.550
0.580
0.595
0.605
0.600
0.570
0.560
0.555
0.540
0.520
0.500
0.455
0.430
0.425
0.435
0.450
0.440
0.430
0.395
0.405
0.400
0.420
0.430
0.410
0.390
0.375
0.380
0.410
0.410
0.390
0.380
0.365
0.375
0.390
0.390
0.365
0.330
0.320
0.360
0.440
0.560
0.695
0.880
1.120
1.360
1.615
1.790
1.850
1.670
1.295
0.870
0.520
0.310
0.245
0.240
0.235
0.250
0.270
0.290
0.330
0.305
0.315
0.305
0.315
0.295
0.285
0.260
0.260
0.280
0.290
0.275
0.280
0.260
0.255
0.260
0.275
0.280
0.265
0.270
0.280
0.300
0.325
0.335
0.315
0.295
0.310
0.325
0.330
0.335
0.320
0.335
0.330
0.350
0.375
0.390
0.385
0.375
0.385
0.405
0.430
0.445
0.440
0.430
0.430
0.445
0.450
0.465
0.455
0.455
0.455
0.470
0.475
0.465
0.460
0.445
0.445
0.470
0.490
0.495
0.490
0.465
0.445
0.465
0.480
0.490
0.480
0.480
0.475
0.485
0.510
0.510
0.515
0.495
0.480
0.485
0.495
0.485
0.440
0.430
0.415
0.420
0.420
0.405
0.380
0.355
0.330
0.330
0.305
0.300
0.285
0.270
0.255
0.255
0.260
0.255
0.235
0.215
0.210
0.220
0.240
0.240
0.230
0.210
0.200
0.220
0.225
0.230
0.215
0.195
0.190
0.200
0.210
0.230
0.220
0.235
0.235
0.240
0.275
0.290
0.285
0.280
0.275
0.290
0.315
0.320
0.335
0.330
0.350
0.370
0.375
0.380
0.370
0.350
0.345
0.330
0.345
0.345
0.315
0.270
0.230
0.215
0.215
0.210
0.205
0.185
0.175
0.170
0.175
0.170
0.170
0.155
0.155
0.170
0.160
0.170
0.150
0.155
0.160
0.165
0.185
0.185
0.170
0.135
0.110
0.140
0.230
0.360
0.540
0.785
1.065
1.375
1.605
1.555
1.120
0.530
0.070
-0.060
0.030
0.095
0.110
0.105
0.120
0.130
0.145
0.150
0.135
0.120
0.125
0.130
0.140
0.130
0.115
0.100
0.085
0.090
0.105
0.110
0.095
0.085
0.095
0.115
0.125
0.135
0.100
0.105
0.105
0.120
0.130
0.135
0.125
0.120
0.130
0.130
0.170
0.170
0.160
0.140
0.145
0.170
0.180
0.175
0.175
0.165
0.160
0.185
0.215
0.215
0.215
0.205
0.220
0.230
0.245
0.250
0.255
0.235
0.240
0.250
0.255
0.245
0.255
0.245
0.240
0.235
0.275
0.265
0.260
0.235
0.230
0.240
0.245
0.240
0.215
0.205
0.185
0.190
0.195
0.195
0.175
0.130
0.125
0.120
0.105
0.095
0.085
0.045
0.030
0.020
0.020
0.010
-0.005
-0.025
-0.030
-0.030
-0.010
-0.015
-0.025
-0.045
-0.055
-0.030
-0.020
-0.035
-0.055
-0.060
-0.060
-0.045
-0.055
-0.030
-0.035
-0.060
-0.045
-0.045
-0.020
-0.035
-0.030
-0.040
-0.015
0.000
0.030
0.030
0.010
0.010
0.020
0.055
0.085
0.095
0.085
0.065
0.065
0.080
0.090
0.080
0.060
0.020
0.000
0.000
0.000
-0.010
-0.030
-0.055
-0.085
-0.085
-0.090
-0.090
-0.120
-0.145
-0.165
-0.170
-0.150
-0.145
-0.160
-0.180
-0.180
-0.180
-0.160
-0.170
-0.190
-0.205
-0.190
-0.170
-0.150
-0.145
-0.190
-0.215
-0.205
-0.160
-0.050
0.105
0.280
0.520
0.765
1.050
1.315
1.520
1.645
1.685
1.495
1.120
0.700
0.305
0.010
-0.140
-0.190
-0.210
-0.220
-0.215
-0.220
-0.235
-0.260
-0.255
-0.265
-0.260
-0.280
-0.305
-0.325
-0.330
-0.315
-0.305
-0.330
-0.345
-0.345
-0.335
-0.325
-0.330
-0.340
-0.350
-0.355
-0.335
-0.330
-0.330
-0.335
-0.360
-0.365
-0.360
-0.340
-0.315
-0.335
-0.340
-0.360
-0.340
-0.325
-0.325
-0.335
-0.345
-0.370
-0.335
-0.340
-0.335
-0.330
-0.345
-0.345
-0.325
-0.320
-0.315
-0.315
-0.310
-0.305
-0.290
-0.275
-0.275
-0.285
-0.295
-0.300
-0.300
-0.300
-0.285
-0.300
-0.300
-0.295
-0.280
-0.270
-0.260
-0.265
-0.285
-0.290
-0.275
-0.250
-0.240
-0.260
-0.275
-0.285
-0.270
-0.265
-0.250
-0.270
-0.260
-0.260
-0.255
-0.260
-0.265
-0.275
-0.315
-0.330
-0.330
-0.330
-0.330
-0.350
-0.375
-0.380
-0.375
-0.365
-0.375
-0.395
-0.415
-0.405
-0.400
-0.390
-0.400
-0.410
-0.440
-0.455
-0.430
-0.425
-0.425
-0.440
-0.450
-0.455
-0.430
-0.415
-0.415
-0.430
-0.445
-0.440
-0.430
-0.420
-0.420
-0.435
-0.465
-0.455
-0.435
-0.410
-0.390
-0.395
-0.390
-0.385
-0.365
-0.330
-0.325
-0.350
-0.370
-0.345
-0.320
-0.290
-0.290
-0.280
-0.300
-0.305
-0.290
-0.260
-0.270
-0.285
-0.325
-0.345
-0.350
-0.350
-0.395
-0.405
-0.435
-0.450
-0.465
-0.470
-0.480
-0.485
-0.500
-0.500
-0.505
-0.490
-0.495
-0.500
-0.525
-0.525
-0.540
-0.515
-0.505
-0.505
-0.535
-0.525
-0.515
-0.495
-0.485
-0.510
-0.535
-0.535
-0.465
-0.335
-0.160
0.010
0.200
0.410
0.630
0.850
0.995
1.000
0.750
0.370
0.030
-0.270
-0.475
-0.560
-0.580
-0.605
-0.615
-0.595
-0.570
-0.550
-0.565
-0.595
-0.590
-0.565
-0.550
-0.570
-0.585
-0.585
-0.605
-0.590
-0.580
-0.590
-0.600
-0.595
-0.600
-0.575
-0.570
-0.580
-0.585
-0.580
-0.565
-0.550
-0.555
-0.565
-0.570
-0.585
-0.565
-0.545
-0.555
-0.545
-0.545
-0.540
-0.530
-0.520
-0.525
-0.520
-0.515
-0.495
-0.475
-0.465
-0.450
-0.460
-0.485
-0.455
-0.430
-0.430
-0.410
-0.430
-0.420
-0.415
-0.385
-0.380
-0.350
-0.360
-0.370
-0.380
-0.370
-0.350
-0.340
-0.350
-0.360
-0.375
-0.360
-0.335
-0.325
-0.325
-0.335
-0.335
-0.330
-0.315
-0.320
-0.320
-0.345
-0.340
-0.340
-0.335
-0.335
-0.360
-0.390
-0.415
-0.425
-0.435
-0.445
-0.470
-0.500
-0.520
-0.530
-0.525
-0.540
-0.550
-0.590
-0.600
-0.595
-0.590
-0.595
-0.605
-0.605
-0.615
-0.595
-0.575
-0.590
-0.605
-0.615
-0.620
-0.625
-0.605
-0.610
-0.605
-0.620
-0.625
-0.625
-0.590
-0.585
-0.580
-0.605
-0.610
-0.600
-0.580
-0.570
-0.595
-0.590
-0.590
-0.595
-0.590
-0.590
-0.600
-0.595
-0.585
-0.560
-0.535
-0.515
-0.510
-0.520
-0.525
-0.505
-0.490
-0.460
-0.455
-0.445
-0.440
-0.435
-0.425
-0.435
-0.440
-0.460
-0.460
-0.455
-0.455
-0.470
-0.500
-0.535
-0.560
-0.565
-0.565
-0.570
-0.595
-0.620
-0.645
-0.650
-0.635
-0.645
-0.650
-0.660
-0.665
-0.645
-0.635
-0.630
-0.640
-0.660
-0.650
-0.650
-0.635
-0.630
-0.655
-0.660
-0.670
-0.655
-0.645
-0.645
-0.650
-0.650
-0.585
-0.485
-0.355
-0.170
0.030
0.245
0.450
0.660
0.855
0.985
0.925
0.610
0.195
-0.205
-0.525
-0.695
-0.730
-0.740
-0.715
-0.715
-0.695
-0.665
-0.640
-0.635
-0.655
-0.655
-0.670
-0.670
-0.685
-0.690
-0.700
-0.680
-0.670
-0.645
-0.665
-0.695
-0.690
-0.680
-0.655
-0.645
-0.660
-0.655
-0.665
-0.650
-0.645
-0.635
-0.635
-0.655
-0.635
-0.615
-0.610
-0.615
-0.615
-0.620
-0.630
-0.595
-0.580
-0.570
-0.570
-0.590
-0.595
-0.580
-0.560
-0.535
-0.535
-0.545
-0.540
-0.535
-0.505
-0.485
-0.490
-0.490
-0.475
-0.465
-0.450
-0.435
-0.445
-0.440
-0.440
-0.425
-0.395
-0.380
-0.380
-0.385
-0.390
-0.380
-0.385
-0.370
-0.390
-0.395
-0.400
-0.390
-0.360
-0.355
-0.370
-0.390
-0.385
-0.365
-0.345
-0.365
-0.370
-0.395
-0.410
-0.405
-0.415
-0.425
-0.465
-0.505
-0.505
-0.505
-0.500
-0.510
-0.525
-0.550
-0.570
-0.565
-0.565
-0.575
-0.580
-0.615
-0.625
-0.625
-0.600
-0.615
-0.620
-0.610
-0.605
-0.590
-0.580
-0.590
-0.600
-0.610
-0.600
-0.580
-0.575
-0.560
-0.565
-0.600
-0.600
-0.570
-0.570
-0.565
-0.560
-0.570
-0.570
-0.560
-0.540
-0.540
-0.540
-0.530
-0.520
-0.495
-0.470
-0.480
-0.480
-0.490
-0.485
-0.445
-0.400
-0.380
-0.370
-0.380
-0.380
-0.375
-0.360
-0.365
-0.385
-0.420
-0.445
-0.440
-0.445
-0.460
-0.505
-0.520
-0.555
-0.550
-0.540
-0.545
-0.555
-0.585
-0.580
-0.585
-0.595
-0.590
-0.605
-0.620
-0.620
-0.605
-0.580
-0.570
-0.580
-0.610
-0.620
-0.600
-0.590
-0.570
-0.580
-0.595
-0.630
-0.625
-0.585
-0.495
-0.380
-0.235
-0.055
0.170
0.435
0.675
0.865
0.990
0.985
0.740
0.380
-0.010
-0.370
-0.645
-0.765
-0.755
-0.705
-0.675
-0.665
-0.655
-0.620
-0.610
-0.585
-0.600
-0.625
-0.635
-0.645
-0.645
-0.645
-0.625
-0.630
-0.645
-0.655
-0.645
-0.630
-0.615
-0.615
-0.635
-0.640
-0.630
-0.600
-0.615
-0.615
-0.635
-0.630
-0.620
-0.615
-0.615
-0.605
-0.610
-0.615
-0.585
-0.570
-0.565
-0.585
-0.575
-0.575
-0.565
-0.550
-0.550
-0.545
-0.565
-0.570
-0.545
-0.530
-0.510
-0.520
-0.520
-0.520
-0.490
-0.460
-0.455
-0.445
-0.460
-0.455
-0.440
-0.420
-0.400
-0.420
-0.440
-0.450
-0.445
-0.430
-0.405
-0.405
-0.420
-0.415
-0.415
-0.400
-0.385
-0.390
-0.410
-0.430
-0.415
-0.410
-0.395
-0.410
-0.430
-0.455
-0.465
-0.445
-0.445
-0.465
-0.495
-0.520
-0.535
-0.525
-0.540
-0.560
-0.590
-0.615
-0.625
-0.620
-0.635
-0.660
-0.675
-0.680
-0.690
-0.700
-0.690
-0.695
-0.705
-0.720
-0.710
-0.705
-0.695
-0.710
-0.710
-0.725
-0.725
-0.700
-0.695
-0.705
-0.710
-0.705
-0.685
-0.675
-0.680
-0.685
-0.715
-0.720
-0.705
-0.700
-0.680
-0.700
-0.720
-0.725
-0.695
-0.675
-0.655
-0.655
-0.650
-0.660
-0.630
-0.605
-0.595
-0.610
-0.630
-0.615
-0.595
-0.565
-0.560
-0.560
-0.570
-0.565
-0.565
-0.550
-0.550
-0.555
-0.610
-0.600
-0.610
-0.625
-0.640
-0.680
-0.730
-0.735
-0.730
-0.715
-0.725
-0.735
-0.740
-0.740
-0.710
-0.685
-0.650
-0.645
-0.625
-0.580
-0.495
-0.415
-0.335
-0.270
-0.205
-0.165
-0.085
-0.025
0.040
0.100
0.135
0.180
0.245
0.370
0.520
0.660
0.835
1.040
1.250
1.410
1.510
1.545
1.505
1.275
0.845
0.320
-0.135
-0.465
-0.675
-0.775
-0.835
-0.880
-0.920
-0.930
-0.965
-0.985
-0.995
-0.990
-1.005
-1.025
-1.045
-1.060
-1.065
-1.065
-1.055
-1.075
-1.095
-1.085
-1.090
-1.080
-1.085
-1.100
-1.110
-1.125
-1.105
-1.095
-1.100
-1.120
-1.130
-1.135
-1.135
-1.120
-1.130
-1.155
-1.170
-1.180
-1.175
-1.165
-1.165
-1.175
-1.190
-1.190
-1.200
-1.190
-1.200
-1.210
-1.225
-1.220
-1.225
-1.205
-1.200
-1.205
-1.205
-1.215
-1.190
-1.170
-1.155
-1.180
-1.200
-1.195
-1.170
-1.160
-1.145
-1.145
-1.150
-1.140
-1.105
-1.090
-1.050
-1.050
-1.030
-1.020
-1.000
-0.980
-0.955
-0.965
-0.980
-0.985
-0.960
-0.950
-0.940
-0.955
-0.960
-0.975
-0.945
-0.950
-0.940
-0.940
-0.965
-0.990
-0.970
-0.945
-0.950
-0.950
-0.965
-0.970
-0.960
-0.930
-0.925
-0.945
-0.935
-0.940
-0.930
-0.920
-0.935
-0.930
-0.940
-0.940
-0.920
-0.910
-0.890
-0.905
-0.930
-0.935
-0.905
-0.890
-0.895
-0.885
-0.905
-0.905
-0.895
-0.875
-0.880
-0.890
-0.885
-0.875
-0.855
-0.835
-0.810
-0.795
-0.785
-0.785
-0.785
-0.785
-0.765
-0.760
-0.755
-0.730
-0.710
-0.690
-0.700
-0.700
-0.715
-0.720
-0.735
-0.745
-0.760
-0.780
-0.805
-0.845
-0.855
-0.845
-0.855
-0.860
-0.880
-0.900
-0.895
-0.895
-0.900
-0.905
-0.925
-0.925
-0.910
-0.905
-0.900
-0.915
-0.925
-0.930
-0.935
-0.910
-0.900
-0.880
-0.895
-0.885
-0.885
-0.885
-0.880
-0.865
-0.800
-0.700
-0.560
-0.355
-0.125
0.125
0.380
0.610
0.770
0.765
0.525
0.140
-0.270
-0.620
-0.850
-0.920
-0.920
-0.925
-0.955
-0.980
-0.950
-0.890
-0.870
-0.900
-0.915
-0.910
-0.885
-0.885
-0.870
-0.895
-0.925
-0.925
-0.895
-0.875
-0.875
-0.885
-0.915
-0.925
-0.900
-0.865
-0.870
-0.880
-0.895
-0.890
-0.875
-0.855
-0.840
-0.860
-0.870
-0.880
-0.865
-0.855
-0.845
-0.835
-0.850
-0.840
-0.825
-0.785
-0.760
-0.770
-0.775
-0.775
-0.755
-0.725
-0.710
-0.720
-0.740
-0.740
-0.710
-0.685
-0.665
-0.670
-0.665
-0.655
-0.625
-0.615
-0.595
-0.600
-0.600
-0.590
-0.575
-0.550
-0.530
-0.545
-0.565
-0.550
-0.535
-0.515
-0.495
-0.510
-0.515
-0.520
-0.500
-0.475
-0.475
-0.480
-0.475
-0.490
-0.495
-0.500
-0.500
-0.515
-0.530
-0.550
-0.560
-0.540
-0.555
-0.575
-0.615
-0.640
-0.660
-0.650
-0.650
-0.670
-0.705
-0.725
-0.725
-0.735
-0.750
-0.765
-0.770
-0.775
-0.775
-0.755
-0.755
-0.760
-0.775
-0.780
-0.770
-0.765
-0.755
-0.755
-0.760
-0.770
-0.760
-0.740
-0.730
-0.740
-0.730
-0.745
-0.730
-0.715
-0.695
-0.710
-0.725
-0.715
-0.720
-0.710
-0.705
-0.705
-0.700
-0.710
-0.685
-0.635
-0.625
-0.620
-0.615
-0.610
-0.590
-0.570
-0.570
-0.560
-0.570
-0.550
-0.535
-0.510
-0.485
-0.515
-0.510
-0.520
-0.525
-0.520
-0.505
-0.525
-0.560
-0.585
-0.620
-0.615
-0.630
-0.640
-0.665
-0.675
-0.665
-0.645
-0.650
-0.670
-0.690
-0.695
-0.695
-0.665
-0.675
-0.680
-0.710
-0.705
-0.695
-0.680
-0.655
-0.670
-0.695
-0.710
-0.720
-0.730
-0.730
-0.700
-0.625
-0.500
-0.335
-0.125
0.110
0.345
0.580
0.790
0.905
0.845
0.535
0.130
-0.280
-0.600
-0.775
-0.810
-0.780
-0.785
-0.785
-0.790
-0.760
-0.730
-0.710
-0.735
-0.750
-0.750
-0.745
-0.720
-0.705
-0.700
-0.705
-0.710
-0.700
-0.685
-0.660
-0.655
-0.640
-0.640
-0.600
-0.565
-0.545
-0.515
-0.510
-0.520
-0.530
-0.540
-0.530
-0.550
-0.585
-0.635
-0.615
-0.525
-0.490
-0.550
-0.620
-0.650
-0.590
-0.520
-0.480
-0.455
-0.435
-0.400
-0.375
-0.355
-0.395
-0.415
-0.420
-0.405
-0.400
-0.370
-0.380
-0.390
-0.420
-0.455
-0.455
-0.440
-0.440
-0.455
-0.475
-0.485
-0.485
-0.475
-0.485
-0.510
-0.530
-0.550
-0.560
-0.535
-0.535
-0.550
-0.550
-0.570
-0.570
-0.580
-0.575
-0.585
-0.600
-0.615
-0.625
-0.605
-0.625
-0.655
-0.690
-0.695
-0.675
-0.655
-0.635
-0.650
-0.675
-0.670
-0.650
-0.630
-0.635
-0.685
-0.715
-0.735
-0.755
-0.760
-0.770
-0.775
-0.760
-0.750
-0.705
-0.665
-0.665
-0.705
-0.720
-0.730
-0.730
-0.710
-0.700
-0.715
-0.740
-0.755
-0.750
-0.740
-0.750
-0.745
-0.745
-0.715
-0.680
-0.640
-0.645
-0.650
-0.685
-0.700
-0.705
-0.710
-0.710
-0.725
-0.755
-0.765
-0.765
-0.740
-0.725
-0.725
-0.725
-0.725
-0.715
-0.695
-0.690
-0.695
-0.685
-0.680
-0.680
-0.680
-0.665
-0.675
-0.690
-0.695
-0.700
-0.675
-0.680
-0.690
-0.725
-0.745
-0.750
-0.725
-0.710
-0.705
-0.715
-0.715
-0.700
-0.685
-0.680
-0.665
-0.685
-0.690
-0.680
-0.675
-0.680
-0.710
-0.705
-0.725
-0.715
-0.705
-0.715
-0.715
-0.730
-0.740
-0.730
-0.710
-0.685
-0.640
-0.545
-0.415
-0.235
0.005
0.245
0.490
0.720
0.935
1.030
0.915
0.585
0.165
-0.225
-0.520
-0.690
-0.725
-0.745
-0.775
-0.800
-0.775
-0.750
-0.735
-0.740
-0.745
-0.770
-0.765
-0.760
-0.765
-0.770
-0.795
-0.820
-0.810
-0.790
-0.790
-0.790
-0.805
-0.780
-0.795
-0.800
-0.790
-0.775
-0.765
-0.780
-0.790
-0.775
-0.760
-0.745
-0.735
-0.750
-0.750
-0.730
-0.710
-0.720
-0.720
-0.765
-0.775
-0.750
-0.735
-0.740
-0.795
-0.825
-0.840
-0.805
-0.745
-0.710
-0.710
-0.735
-0.745
-0.750
-0.750
-0.770
-0.800
-0.815
-0.755
-0.650
-0.540
-0.485
-0.570
-0.680
-0.755
-0.775
-0.770
-0.765
-0.755
-0.765
-0.795
-0.945
-1.150
-1.340
-1.340
-1.075
-0.800
-0.660
-0.610
-0.590
-0.575
-0.595
-0.620
-0.605
-0.575
-0.560
-0.570
-0.570
-0.565
-0.580
-0.555
-0.560
-0.595
-0.625
-0.630
-0.615
-0.585
-0.585
-0.590
-0.610
-0.610
-0.610
-0.595
-0.580
-0.590
-0.600
-0.615
-0.610
-0.595
-0.575
-0.595
-0.635
-0.650
-0.655
-0.625
-0.590
-0.590
-0.590
-0.590
-0.580
-0.550
-0.545
-0.560
-0.550
-0.550
-0.535
-0.525
-0.530
-0.545
-0.565
-0.575
-0.560
-0.535
-0.535
-0.575
-0.605
-0.610
-0.590
-0.565
-0.530
-0.530
-0.545
-0.550
-0.550
-0.530
-0.510
-0.515
-0.500
-0.495
-0.480
-0.450
-0.425
-0.415
-0.430
-0.440
-0.445
-0.450
-0.485
-0.555
-0.605
-0.645
-0.680
-0.670
-0.645
-0.645
-0.640
-0.655
-0.665
-0.665
-0.665
-0.675
-0.675
-0.695
-0.680
-0.665
-0.640
-0.655
-0.645
-0.615
-0.580
-0.550
-0.545
-0.545
-0.545
-0.545
-0.515
-0.450
-0.350
-0.230
-0.060
0.150
0.390
0.650
0.920
1.140
1.195
0.990
0.585
0.170
-0.190
-0.415
-0.535
-0.555
-0.560
-0.570
-0.535
-0.480
-0.465
-0.475
-0.460
-0.430
-0.420
-0.445
-0.500
-0.535
-0.525
-0.525
-0.510
-0.520
-0.515
-0.490
-0.450
-0.430
-0.430
-0.450
-0.490
-0.520
-0.530
-0.525
-0.540
-0.575
-0.625
-0.685
-0.735
-0.775
-0.825
-0.860
-0.880
-0.885
-0.890
-0.850
-0.795
-0.770
-0.735
-0.700
-0.660
-0.610
-0.565
-0.545
-0.540
-0.500
-0.435
-0.360
-0.280
-0.205
-0.140
-0.135
-0.140
-0.160
-0.150
-0.125
-0.145
-0.185
-0.245
-0.295
-0.325
-0.345
-0.365
-0.370
-0.355
-0.320
-0.310
-0.305
-0.310
-0.295
-0.275
-0.255
-0.230
-0.245
-0.240
-0.240
-0.230
-0.245
-0.265
-0.305
-0.345
-0.380
-0.410
-0.420
-0.440
-0.470
-0.505
-0.545
-0.565
-0.565
-0.570
-0.605
-0.615
-0.645
-0.665
-0.660
-0.660
-0.675
-0.695
-0.715
-0.705
-0.710
-0.715
-0.715
-0.695
-0.675
-0.635
-0.635
-0.660
-0.660
-0.630
-0.575
-0.520
-0.515
-0.500
-0.510
-0.520
-0.520
-0.505
-0.475
-0.470
-0.480
-0.485
-0.490
-0.485
-0.465
-0.460
-0.520
-0.575
-0.615
-0.680
-0.760
-0.865
-0.980
-1.040
-1.005
-0.845
-0.645
-0.560
-0.615
-0.685
-0.680
-0.650
-0.615
-0.605
-0.600
-0.600
-0.585
-0.565
-0.525
-0.510
-0.480
-0.425
-0.365
-0.275
-0.205
-0.165
-0.160
-0.210
-0.245
-0.275
-0.255
-0.255
-0.285
-0.340
-0.365
-0.390
-0.400
-0.405
-0.420
-0.430
-0.440
-0.450
-0.445
-0.440
-0.440
-0.455
-0.475
-0.485
-0.480
-0.475
-0.480
-0.490
-0.495
-0.465
-0.450
-0.440
-0.415
-0.430
-0.425
-0.430
-0.420
-0.385
-0.315
-0.200
-0.050
0.110
0.275
0.500
0.755
0.955
0.955
0.725
0.325
-0.070
-0.410
-0.615
-0.710
-0.750
-0.750
-0.785
-0.780
-0.800
-0.835
-0.865
-0.850
-0.840
-0.815
-0.790
-0.810
-0.790
-0.780
-0.775
-0.780
-0.760
-0.665
-0.560
-0.485
-0.465
-0.555
-0.725
-0.795
-0.765
-0.735
-0.720
-0.715
-0.720
-0.710
-0.725
-0.710
-0.675
-0.650
-0.670
-0.685
-0.700
-0.695
-0.705
-0.715
-0.745
-0.745
-0.750
-0.745
-0.740
-0.750
-0.740
-0.695
-0.610
-0.565
-0.520
-0.505
-0.475
-0.425
-0.385
-0.340
-0.330
-0.335
-0.345
-0.360
-0.340
-0.330
-0.325
-0.325
-0.320
-0.305
-0.300
-0.280
-0.265
-0.255
-0.265
-0.275
-0.285
-0.275
-0.265
-0.270
-0.280
-0.310
-0.295
-0.300
-0.325
-0.340
-0.370
-0.405
-0.425
-0.430
-0.440
-0.480
-0.530
-0.570
-0.570
-0.585
-0.570
-0.575
-0.575
-0.580
-0.555
-0.535
-0.495
-0.485
-0.495
-0.480
-0.460
-0.435
-0.415
-0.420
-0.425
-0.435
-0.415
-0.395
-0.365
-0.375
-0.390
-0.410
-0.475
-0.540
-0.515
-0.460
-0.460
-0.500
-0.550
-0.545
-0.555
-0.555
-0.580
-0.600
-0.615
-0.615
-0.635
-0.660
-0.675
-0.680
-0.670
-0.650
-0.625
-0.615
-0.595
-0.565
-0.495
-0.450
-0.430
-0.435
-0.430
-0.430
-0.425
-0.395
-0.405
-0.445
-0.460
-0.440
-0.400
-0.395
-0.380
-0.335
-0.275
-0.190
-0.095
0.000
0.085
0.170
0.250
0.325
0.420
0.515
0.580
0.590
0.670
0.745
0.820
0.900
0.945
1.025
1.155
1.335
1.540
1.700
1.835
1.910
1.970
1.965
1.805
1.410
0.895
0.425
0.020
-0.245
-0.345
-0.395
-0.445
-0.520
-0.575
-0.615
-0.650
-0.690
-0.720
-0.730
-0.785
-0.800
-0.840
-0.840
-0.785
-0.705
-0.635
-0.635
-0.650
-0.650
-0.625
-0.605
-0.590
-0.585
-0.615
-0.655
-0.680
-0.700
-0.725
-0.730
-0.715
-0.690
-0.715
-0.735
-0.755
-0.755
-0.760
-0.770
-0.785
-0.810
-0.835
-0.865
-0.845
-0.820
-0.810
-0.825
-0.850
-0.870
-0.845
-0.820
-0.815
-0.815
-0.810
-0.800
-0.800
-0.780
-0.770
-0.750
-0.740
-0.730
-0.715
-0.710
-0.700
-0.695
-0.690
-0.680
-0.670
-0.655
-0.610
-0.595
-0.595
-0.570
-0.530
-0.475
-0.440
-0.420
-0.415
-0.420
-0.385
-0.355
-0.330
-0.330
-0.350
-0.355
-0.345
-0.325
-0.315
-0.305
-0.320
-0.355
-0.360
-0.340
-0.300
-0.320
-0.350
-0.365
-0.370
-0.360
-0.355
-0.355
-0.365
-0.385
-0.390
-0.395
-0.375
-0.355
-0.345
-0.340
-0.320
-0.270
-0.235
-0.215
-0.240
-0.270
-0.310
-0.330
-0.340
-0.360
-0.375
-0.390
-0.395
-0.390
-0.395
-0.395
-0.415
-0.420
-0.410
-0.390
-0.360
-0.340
-0.355
-0.365
-0.370
-0.360
-0.350
-0.350
-0.370
-0.375
-0.380
-0.365
-0.330
-0.290
-0.225
-0.185
-0.170
-0.160
-0.155
-0.135
-0.145
-0.150
-0.150
-0.160
-0.170
-0.175
-0.185
-0.210
-0.230
-0.230
-0.235
-0.240
-0.250
-0.245
-0.230
-0.220
-0.225
-0.215
-0.220
-0.240
-0.250
-0.245
-0.220
-0.220
-0.245
-0.255
-0.235
-0.215
-0.210
-0.210
-0.210
-0.235
-0.245
-0.225
-0.200
-0.185
-0.215
-0.220
-0.165
-0.090
0.050
0.190
0.355
0.585
0.870
1.165
1.395
1.555
1.545
1.305
0.915
0.485
0.110
-0.165
-0.280
-0.290
-0.250
-0.225
-0.225
-0.205
-0.170
-0.125
-0.120
-0.135
-0.155
-0.170
-0.160
-0.160
-0.165
-0.150
-0.140
-0.135
-0.145
-0.150
-0.150
-0.145
-0.150
-0.140
-0.160
-0.170
-0.150
-0.140
-0.125
-0.140
-0.170
-0.170
-0.165
-0.155
-0.155
-0.165
-0.200
-0.185
-0.190
-0.175
-0.175
-0.155
-0.125
-0.120
-0.090
-0.065
-0.030
-0.030
-0.040
-0.045
-0.025
-0.010
0.005
0.005
0.005
-0.005
0.025
0.060
0.070
0.070
0.085
0.095
0.115
0.140
0.140
0.155
0.145
0.120
0.115
0.145
0.160
0.160
0.150
0.145
0.170
0.195
0.210
0.205
0.195
0.190
0.190
0.195
0.200
0.180
0.150
0.110
0.120
0.130
0.115
0.095
0.075
0.050
0.040
0.035
0.005
-0.010
-0.035
-0.060
-0.055
-0.060
-0.055
-0.070
-0.105
-0.125
-0.125
-0.100
-0.085
-0.105
-0.125
-0.140
-0.135
-0.110
-0.115
-0.135
-0.145
-0.150
-0.145
-0.135
-0.135
-0.140
-0.145
-0.155
-0.155
-0.145
-0.125
-0.140
-0.155
-0.160
-0.160
-0.140
-0.140
-0.150
-0.155
-0.165
-0.165
-0.150
-0.150
-0.155
-0.170
-0.175
-0.185
-0.165
-0.160
-0.180
-0.170
-0.165
-0.145
-0.135
-0.125
-0.135
-0.140
-0.125
-0.090
-0.065
-0.070
-0.080
-0.090
-0.090
-0.075
-0.065
-0.065
-0.090
-0.110
-0.125
-0.130
-0.130
-0.140
-0.170
-0.220
-0.225
-0.230
-0.230
-0.215
-0.220
-0.240
-0.255
-0.265
-0.260
-0.245
-0.275
-0.295
-0.290
-0.280
-0.255
-0.250
-0.245
-0.265
-0.260
-0.240
-0.230
-0.235
-0.230
-0.250
-0.255
-0.260
-0.250
-0.260
-0.235
-0.175
-0.055
0.100
0.315
0.540
0.790
1.035
1.295
1.485
1.570
1.415
1.080
0.665
0.275
-0.005
-0.170
-0.235
-0.245
-0.280
-0.315
-0.300
-0.270
-0.240
-0.225
-0.260
-0.275
-0.290
-0.285
-0.265
-0.260
-0.285
-0.305
-0.285
-0.280
-0.270
-0.270
-0.285
-0.300
-0.290
-0.260
-0.255
-0.260
-0.270
-0.285
-0.285
-0.270
-0.260
-0.275
-0.280
-0.275
-0.265
-0.245
-0.230
-0.220
-0.235
-0.235
-0.225
-0.210
-0.205
-0.210
-0.210
-0.230
-0.210
-0.190
-0.175
-0.175
-0.185
-0.170
-0.150
-0.145
-0.125
-0.110
-0.120
-0.100
-0.085
-0.080
-0.065
-0.055
-0.060
-0.060
-0.045
-0.015
-0.015
-0.005
0.005
0.005
0.015
0.045
0.045
0.040
0.025
0.015
0.010
0.030
0.015
0.010
0.005
-0.015
-0.020
-0.020
-0.010
-0.030
-0.055
-0.075
-0.085
-0.095
-0.125
-0.145
-0.175
-0.205
-0.215
-0.220
-0.230
-0.245
-0.275
-0.285
-0.295
-0.285
-0.290
-0.305
-0.325
-0.330
-0.340
-0.320
-0.330
-0.325
-0.350
-0.365
-0.350
-0.335
-0.345
-0.360
-0.355
-0.335
-0.310
-0.290
-0.295
-0.295
-0.295
-0.285
-0.285
-0.265
-0.265
-0.275
-0.280
-0.300
-0.285
-0.265
-0.250
-0.240
-0.265
-0.285
-0.270
-0.230
-0.230
-0.235
-0.245
-0.260
-0.245
-0.220
-0.195
-0.185
-0.175
-0.160
-0.120
-0.095
-0.080
-0.085
-0.090
-0.080
-0.055
-0.025
-0.010
-0.020
-0.040
-0.040
-0.050
-0.045
-0.030
-0.050
-0.085
-0.100
-0.095
-0.095
-0.115
-0.135
-0.170
-0.205
-0.215
-0.225
-0.240
-0.250
-0.305
-0.305
-0.310
-0.290
-0.270
-0.260
-0.265
-0.250
-0.215
-0.185
-0.145
-0.110
-0.060
-0.020
0.040
0.090
0.175
0.240
0.300
0.350
0.420
0.510
0.650
0.780
0.935
1.115
1.335
1.595
1.840
2.060
2.190
2.175
1.930
1.500
0.995
0.525
0.155
-0.040
-0.140
-0.190
-0.245
-0.275
-0.295
-0.315
-0.320
-0.340
-0.360
-0.370
-0.415
-0.430
-0.435
-0.430
-0.435
-0.440
-0.425
-0.420
-0.430
-0.425
-0.415
-0.425
-0.455
-0.475
-0.470
-0.455
-0.450
-0.460
-0.460
-0.475
-0.465
-0.460
-0.440
-0.460
-0.460
-0.475
-0.475
-0.475
-0.470
-0.475
-0.495
-0.515
-0.515
-0.485
-0.475
-0.475
-0.480
-0.495
-0.485
-0.445
-0.425
-0.430
-0.440
-0.455
-0.460
-0.435
-0.415
-0.405
-0.425
-0.430
-0.430
-0.415
-0.395
-0.390
-0.400
-0.365
-0.350
-0.335
-0.320
-0.340
-0.340
-0.330
-0.310
-0.290
-0.285
-0.275
-0.280
-0.275
-0.255
-0.225
-0.220
-0.230
-0.240
-0.245
-0.245
-0.225
-0.225
-0.235
-0.250
-0.260
-0.255
-0.255
-0.225
-0.245
-0.245
-0.240
-0.230
-0.235
-0.230
-0.220
-0.220
-0.235
-0.250
-0.235
-0.215
-0.220
-0.240
-0.250
-0.220
-0.200
-0.190
-0.185
-0.185
-0.205
-0.210
-0.205
-0.195
-0.175
-0.185
-0.195
-0.190
-0.180
-0.175
-0.180
-0.195
-0.200
-0.185
-0.155
-0.130
-0.150
-0.160
-0.165
-0.145
-0.130
-0.120
-0.135
-0.130
-0.130
-0.125
-0.100
-0.070
-0.070
-0.070
-0.070
-0.055
-0.035
-0.025
0.000
-0.010
-0.005
0.025
0.065
0.100
0.125
0.130
0.125
0.155
0.170
0.200
0.235
0.260
0.300
0.335
0.355
0.385
0.405
0.400
0.410
0.420
0.470
0.490
0.500
0.475
0.480
0.475
0.515
0.535
0.570
0.590
0.615
0.640
0.685
0.725
0.765
0.780
0.820
0.860
0.920
0.955
0.995
1.060
1.105
1.155
1.220
1.270
1.300
1.345
1.400
1.445
1.520
1.560
1.605
1.670
1.790
1.940
2.140
2.335
2.545
2.745
2.960
3.175
3.325
3.415
3.330
3.125
2.865
2.650
2.510
2.515
2.560
2.575
2.595
2.675
2.770
2.845
2.875
2.900
2.925
2.980
3.035
3.090
3.115
3.135
3.150
3.190
3.240
3.285
3.300
3.330
3.350
3.375
3.415
3.455
3.480
3.480
3.490
3.520
3.545
3.565
3.570
3.570
3.585
3.585
3.615
3.630
3.630
3.620
3.605
3.630
3.640
3.650
3.645
3.635
3.625
3.620
3.625
3.640
3.630
3.605
3.590
3.600
3.610
3.610
3.590
3.575
3.565
3.560
3.560
3.575
3.555
3.530
3.520
3.535
3.540
3.545
3.540
3.515
3.500
3.500
3.500
3.500
3.495
3.490
3.465
3.450
3.480
3.470
3.465
3.455
3.440
3.440
3.445
3.460
3.450
3.425
3.410
3.405
3.415
3.425
3.415
3.390
3.380
3.375
3.385
3.375
3.380
3.355
3.340
3.345
3.355
3.355
3.345
3.330
3.320
3.310
3.325
3.315
3.305
3.280
3.275
3.275
3.285
3.285
3.275
3.255
3.245
3.240
3.245
3.255
3.245
3.210
3.190
3.200
3.205
3.210
3.200
3.170
3.155
3.165
3.175
3.170
3.170
3.160
3.145
3.125
3.145
3.150
3.135
3.120
3.110
3.105
3.115
3.120
3.100
3.080
3.055
3.060
3.065
3.070
3.070
3.040
3.025
3.035
3.040
3.045
3.030
3.015
2.995
3.000
3.005
3.005
2.985
2.960
2.945
2.935
2.950
2.955
2.940
2.915
2.885
2.890
2.905
2.910
2.900
2.875
2.850
2.855
2.865
2.855
2.835
2.820
2.810
2.815
2.820
2.815
2.805
2.775
2.765
2.765
2.765
2.775
2.770
2.740
2.720
2.720
2.730
2.725
2.730
2.715
2.700
2.720
2.725
2.730
2.730
2.710
2.695
2.700
2.690
2.705
2.670
2.635
2.600
2.570
2.575
2.580
2.565
2.545
2.530
2.530
2.535
2.515
2.510
2.490
2.475
2.465
2.475
2.485
2.480
2.460
2.445
2.430
2.445
2.440
2.440
2.410
2.405
2.395
2.400
2.415
2.400
2.385
2.370
2.365
2.375
2.375
2.365
2.340
2.330
2.340
2.340
2.350
2.345
2.325
2.310
2.310
2.305
2.320
2.295
2.280
2.280
2.285
2.280
2.290
2.295
2.270
2.250
2.265
2.275
2.280
2.270
2.260
2.245
2.235
2.255
2.260
2.255
2.225
2.210
2.215
2.215
2.220
2.205
2.185
2.180
2.180
2.180
2.185
2.180
2.155
2.140
2.150
2.145
2.145
2.125
2.100
2.085
2.075
2.090
2.085
2.070
2.040
2.025
2.005
2.025
2.020
2.015
1.995
1.965
1.960
1.975
1.975
1.970
1.955
1.930
1.935
1.935
1.940
1.930
1.910
1.895
1.890
1.910
1.910
1.895
1.880
1.865
1.870
1.870
1.870
1.865
1.845
1.830
1.830
1.820
1.835
1.830
1.810
1.795
1.795
1.795
1.795
1.795
1.785
1.765
1.750
1.765
1.760
1.770
1.740
1.720
1.735
1.730
1.750
1.745
1.725
1.710
1.715
1.720
1.720
1.725
1.705
1.695
1.695
1.700
1.710
1.695
1.685
1.675
1.665
1.675
1.680
1.665
1.635
1.610
1.595
1.590
1.585
1.590
1.570
1.545
1.550
1.565
1.580
1.580
1.585
1.580
1.590
1.610
1.630
1.625
1.615
1.620
1.625
1.640
1.665
1.655
1.625
1.615
1.615
1.630
1.635
1.630
1.595
1.595
1.600
1.600
1.605
1.610
1.590
1.570
1.570
1.580
1.595
1.590
1.550
1.525
1.480
1.445
1.395
1.350
1.290
1.270
1.255
1.255
1.235
1.225
1.205
1.175
1.175
1.190
1.175
1.170
1.150
1.135
1.130
1.130
1.140
1.125
1.105
1.080
1.080
1.090
1.095
1.080
1.040
1.030
1.040
1.040
1.030
1.030
1.005
0.990
0.980
0.975
0.975
0.970
0.935
0.925
0.920
0.925
0.930
0.925
0.895
0.885
0.880
0.880
0.895
0.885
0.875
0.845
0.830
0.850
0.850
0.850
0.835
0.815
0.815
0.825
0.830
0.850
0.825
0.810
0.830
0.825
0.835
0.840
0.825
0.820
0.815
0.825
0.840
0.855
0.855
0.855
0.860
0.880
0.895
0.890
0.875
0.870
0.880
0.890
0.900
0.895
0.875
0.850
0.835
0.850
0.865
0.855
0.840
0.825
0.830
0.850
0.860
0.845
0.820
0.820
0.800
0.815
0.810
0.805
0.790
0.765
0.765
0.780
0.785
0.780
0.755
0.755
0.745
0.760
0.775
0.770
0.740
0.715
0.715
0.725
0.735
0.725
0.720
0.705
0.705
0.715
0.730
0.720
0.710
0.710
0.710
0.725
0.730
0.725
0.690
0.680
0.685
0.720
0.735
0.740
0.740
0.730
0.720
0.720
0.735
0.750
0.745
0.730
0.745
0.735
0.735
0.740
0.715
0.695
0.685
0.700
0.715
0.700
0.665
0.625
0.615
0.610
0.600
0.600
0.565
0.545
0.540
0.545
0.550
0.560
0.540
0.515
0.510
0.525
0.520
0.525
0.500
0.490
0.485
0.485
0.480
0.470
0.450
0.420
0.410
0.435
0.485
0.535
0.600
0.675
0.760
0.860
0.925
0.955
0.930
0.910
0.840
0.735
0.550
0.405
0.340
0.350
0.380
0.410
0.440
0.445
0.430
0.395
0.395
0.415
0.410
0.400
0.385
0.380
0.390
0.395
0.400
0.395
0.380
0.365
0.370
0.380
0.380
0.375
0.365
0.350
0.355
0.370
0.370
0.375
0.365
0.355
0.360
0.370
0.375
0.380
0.370
0.365
0.370
0.375
0.400
0.400
0.380
0.370
0.385
0.390
0.410
0.420
0.410
0.410
0.410
0.435
0.465
0.460
0.445
0.435
0.445
0.460
0.470
0.480
0.475
0.470
0.480
0.490
0.495
0.490
0.475
0.470
0.460
0.475
0.480
0.485
0.470
0.440
0.435
0.440
0.445
0.435
0.400
0.375
0.365
0.360
0.345
0.335
0.305
0.270
0.250
0.255
0.260
0.245
0.225
0.205
0.195
0.210
0.200
0.185
0.160
0.145
0.135
0.135
0.135
0.135
0.135
0.115
0.115
0.120
0.140
0.140
0.120
0.115
0.100
0.105
0.110
0.105
0.085
0.070
0.060
0.085
0.100
0.105
0.090
0.070
0.065
0.075
0.085
0.085
0.070
0.070
0.065
0.085
0.090
0.090
0.065
0.060
0.060
0.065
0.095
0.105
0.095
0.105
0.110
0.115
0.135
0.120
0.105
0.075
0.085
0.105
0.100
0.085
0.055
0.035
0.015
-0.020
-0.030
-0.040
-0.075
-0.090
-0.085
-0.095
-0.085
-0.095
-0.125
-0.130
-0.135
-0.135
-0.135
-0.150
-0.160
-0.170
-0.165
-0.155
-0.145
-0.155
-0.185
-0.215
-0.225
-0.215
-0.225
-0.240
-0.275
-0.250
-0.185
-0.085
0.025
0.135
0.245
0.355
0.455
0.515
0.540
0.510
0.435
0.310
0.125
-0.090
-0.275
-0.365
-0.365
-0.330
-0.315
-0.315
-0.285
-0.265
-0.265
-0.290
-0.300
-0.285
-0.290
-0.295
-0.320
-0.330
-0.310
-0.300
-0.310
-0.310
-0.315
-0.305
-0.290
-0.285
-0.275
-0.270
-0.290
-0.300
-0.315
-0.305
-0.315
-0.310
-0.320
-0.325
-0.320
-0.295
-0.265
-0.260
-0.290
-0.325
-0.335
-0.325
-0.320
-0.320
-0.330
-0.340
-0.330
-0.310
-0.305
-0.280
-0.300
-0.305
-0.300
-0.295
-0.265
-0.270
-0.250
-0.265
-0.260
-0.250
-0.245
-0.250
-0.255
-0.220
-0.215
-0.225
-0.200
-0.195
-0.195
-0.205
-0.205
-0.190
-0.190
-0.195
-0.240
-0.235
-0.215
-0.200
-0.200
-0.215
-0.235
-0.255
-0.290
-0.270
-0.260
-0.290
-0.315
-0.340
-0.350
-0.365
-0.370
-0.395
-0.410
-0.435
-0.460
-0.470
-0.425
-0.425
-0.455
-0.485
-0.480
-0.475
-0.480
-0.495
-0.525
-0.545
-0.530
-0.480
-0.470
-0.485
-0.515
-0.555
-0.545
-0.515
-0.485
-0.495
-0.520
-0.535
-0.530
-0.525
-0.525
-0.525
-0.550
-0.555
-0.545
-0.530
-0.530
-0.540
-0.540
-0.535
-0.535
-0.530
-0.545
-0.560
-0.570
-0.570
-0.540
-0.505
-0.490
-0.495
-0.520
-0.530
-0.520
-0.485
-0.480
-0.465
-0.465
-0.475
-0.490
-0.460
-0.445
-0.465
-0.490
-0.515
-0.520
-0.530
-0.530
-0.550
-0.585
-0.590
-0.590
-0.595
-0.590
-0.605
-0.640
-0.675
-0.675
-0.670
-0.655
-0.665
-0.695
-0.705
-0.695
-0.675
-0.680
-0.680
-0.695
-0.725
-0.745
-0.710
-0.705
-0.670
-0.660
-0.660
-0.660
-0.605
-0.520
-0.410
-0.290
-0.150
0.005
0.140
0.250
0.310
0.320
0.300
0.285
0.255
0.140
-0.090
-0.385
-0.575
-0.680
-0.715
-0.740
-0.755
-0.750
-0.780
-0.790
-0.805
-0.795
-0.810
-0.845
-0.865
-0.840
-0.825
-0.825
-0.830
-0.860
-0.905
-0.915
-0.895
-0.870
-0.860
-0.880
-0.895
-0.900
-0.870
-0.840
-0.850
-0.880
-0.925
-0.905
-0.890
-0.855
-0.875
-0.885
-0.885
-0.890
-0.900
-0.890
-0.885
-0.915
-0.950
-0.935
-0.905
-0.865
-0.845
-0.855
-0.875
-0.860
-0.840
-0.825
-0.840
-0.905
-0.930
-0.895
-0.855
-0.795
-0.785
-0.780
-0.790
-0.780
-0.735
-0.725
-0.755
-0.780
-0.780
-0.750
-0.725
-0.715
-0.745
-0.765
-0.755
-0.715
-0.690
-0.690
-0.710
-0.715
-0.730
-0.730
-0.715
-0.725
-0.725
-0.760
-0.810
-0.820
-0.805
-0.800
-0.800
-0.815
-0.825
-0.835
-0.845
-0.845
-0.855
-0.870
-0.895
-0.890
-0.875
-0.855
-0.865
-0.890
-0.880
-0.890
-0.910
-0.915
-0.915
-0.935
-0.935
-0.905
-0.895
-0.905
-0.915
-0.935
-0.925
-0.940
-0.930
-0.930
-0.915
-0.930
-0.945
-0.915
-0.920
-0.915
-0.945
-0.975
-0.960
-0.930
-0.905
-0.885
-0.880
-0.915
-0.955
-0.950
-0.945
-0.935
-0.915
-0.870
-0.870
-0.850
-0.850
-0.830
-0.820
-0.820
-0.825
-0.810
-0.800
-0.820
-0.815
-0.800
-0.785
-0.790
-0.805
-0.800
-0.815
-0.860
-0.910
-0.925
-0.925
-0.885
-0.870
-0.860
-0.900
-0.950
-0.985
-0.990
-0.985
-0.970
-0.960
-0.975
-0.955
-0.950
-0.975
-0.995
-1.005
-1.015
-1.020
-1.000
-0.995
-0.980
-0.995
-1.000
-0.995
-0.990
-1.010
-1.050
-1.050
-0.990
-0.900
-0.765
-0.590
-0.420
-0.235
-0.050
0.080
0.170
0.170
0.045
-0.205
-0.505
-0.815
-1.035
-1.105
-1.085
-1.075
-1.060
-1.035
-0.995
-0.955
-0.940
-0.985
-1.030
-1.030
-1.005
-0.990
-1.020
-1.040
-1.035
-1.000
-0.995
-1.000
-1.050
-1.060
-1.035
-0.960
-0.915
-0.925
-0.970
-0.970
-0.955
-0.915
-0.900
-0.925
-0.945
-0.930
-0.915
-0.915
-0.900
-0.905
-0.910
-0.910
-0.900
-0.875
-0.845
-0.835
-0.850
-0.855
-0.850
-0.805
-0.760
-0.745
-0.765
-0.775
-0.755
-0.735
-0.705
-0.700
-0.685
-0.675
-0.650
-0.640
-0.635
-0.620
-0.635
-0.645
-0.635
-0.605
-0.580
-0.570
-0.605
-0.630
-0.670
-0.670
-0.690
-0.705
-0.740
-0.760
-0.775
-0.795
-0.830
-0.840
-0.845
-0.870
-0.870
-0.875
-0.860
-0.880
-0.910
-0.930
-0.940
-0.950
-0.950
-0.945
-0.940
-0.950
-0.950
-0.945
-0.935
-0.935
-0.955
-0.970
-0.985
-0.975
-0.955
-0.950
-0.940
-0.940
-0.955
-0.960
-0.945
-0.955
-0.975
-1.000
-0.970
-0.935
-0.920
-0.925
-0.935
-0.960
-0.975
-0.985
-1.000
-0.970
-0.980
-0.970
-0.935
-0.900
-0.875
-0.880
-0.890
-0.915
-0.910
-0.895
-0.885
-0.895
-0.910
-0.915
-0.910
-0.900
-0.880
-0.885
-0.935
-0.980
-1.000
-0.990
-1.000
-1.040
-1.085
-1.125
-1.140
-1.140
-1.150
-1.140
-1.150
-1.150
-1.145
-1.145
-1.135
-1.145
-1.185
-1.195
-1.185
-1.165
-1.150
-1.165
-1.190
-1.210
-1.205
-1.190
-1.165
-1.170
-1.205
-1.200
-1.125
-0.985
-0.805
-0.640
-0.450
-0.265
-0.060
0.095
0.190
0.175
0.010
-0.255
-0.540
-0.815
-1.005
-1.080
-1.140
-1.195
-1.235
-1.235
-1.200
-1.165
-1.175
-1.205
-1.230
-1.240
-1.230
-1.210
-1.240
-1.270
-1.250
-1.200
-1.205
-1.220
-1.245
-1.240
-1.230
-1.235
-1.255
-1.250
-1.265
-1.245
-1.225
-1.210
-1.220
-1.225
-1.230
-1.235
-1.215
-1.195
-1.185
-1.175
-1.170
-1.195
-1.185
-1.185
-1.155
-1.140
-1.145
-1.140
-1.130
-1.110
-1.070
-1.080
-1.090
-1.090
-1.090
-1.075
-1.055
-1.035
-1.020
-1.020
-1.000
-0.985
-0.955
-0.950
-0.965
-0.990
-0.990
-0.960
-0.930
-0.915
-0.915
-0.910
-0.920
-0.920
-0.905
-0.890
-0.910
-0.935
-0.920
-0.920
-0.905
-0.915
-0.950
-0.970
-0.985
-0.990
-1.025
-1.040
-1.070
-1.095
-1.110
-1.110
-1.120
-1.140
-1.175
-1.190
-1.210
-1.215
-1.215
-1.210
-1.230
-1.265
-1.255
-1.240
-1.235
-1.265
-1.275
-1.285
-1.275
-1.280
-1.235
-1.225
-1.250
-1.270
-1.275
-1.265
-1.255
-1.260
-1.265
-1.280
-1.275
-1.270
-1.255
-1.255
-1.260
-1.255
-1.255
-1.270
-1.260
-1.235
-1.220
-1.245
-1.255
-1.260
-1.255
-1.255
-1.255
-1.265
-1.265
-1.215
-1.170
-1.150
-1.135
-1.140
-1.145
-1.145
-1.130
-1.100
-1.105
-1.110
-1.115
-1.105
-1.090
-1.085
-1.095
-1.095
-1.095
-1.105
-1.120
-1.140
-1.160
-1.180
-1.185
-1.200
-1.205
-1.205
-1.235
-1.245
-1.250
-1.245
-1.235
-1.230
-1.235
-1.255
-1.270
-1.270
-1.235
-1.220
-1.225
-1.255
-1.285
-1.260
-1.230
-1.220
-1.240
-1.250
-1.225
-1.220
-1.225
-1.235
-1.215
-1.150
-1.000
-0.835
-0.615
-0.380
-0.140
0.095
0.280
0.385
0.375
0.200
-0.090
-0.490
-0.860
-1.075
-1.185
-1.260
-1.310
-1.335
-1.325
-1.310
-1.295
-1.285
-1.340
-1.350
-1.375
-1.365
-1.360
-1.355
-1.365
-1.395
-1.405
-1.380
-1.355
-1.330
-1.335
-1.360
-1.375
-1.365
-1.360
-1.365
-1.395
-1.430
-1.435
-1.425
-1.435
-1.450
-1.475
-1.500
-1.525
-1.515
-1.495
-1.500
-1.495
-1.495
-1.485
-1.455
-1.395
-1.360
-1.330
-1.330
-1.295
-1.260
-1.225
-1.225
-1.225
-1.230
-1.220
-1.200
-1.185
-1.195
-1.215
-1.235
-1.235
-1.220
-1.200
-1.200
-1.220
-1.210
-1.195
-1.160
-1.140
-1.140
-1.165
-1.190
-1.190
-1.135
-1.120
-1.105
-1.100
-1.110
-1.115
-1.095
-1.090
-1.100
-1.110
-1.135
-1.145
-1.145
-1.150
-1.155
-1.170
-1.210
-1.230
-1.240
-1.225
-1.195
-1.220
-1.245
-1.245
-1.255
-1.250
-1.255
-1.285
-1.300
-1.330
-1.295
-1.270
-1.265
-1.280
-1.295
-1.305
-1.290
-1.290
-1.265
-1.255
-1.270
-1.270
-1.260
-1.240
-1.240
-1.260
-1.295
-1.285
-1.265
-1.250
-1.265
-1.260
-1.255
-1.255
-1.255
-1.245
-1.235
-1.220
-1.225
-1.240
-1.245
-1.225
-1.215
-1.230
-1.245
-1.245
-1.215
-1.190
-1.185
-1.200
-1.205
-1.205
-1.195
-1.180
-1.165
-1.150
-1.165
-1.135
-1.090
-1.090
-1.090
-1.095
-1.075
-1.025
-0.975
-0.920
-0.885
-0.845
-0.795
-0.730
-0.650
-0.545
-0.455
-0.410
-0.385
-0.360
-0.335
-0.250
-0.195
-0.145
-0.085
-0.010
0.045
0.135
0.195
0.225
0.250
0.250
0.225
0.185
0.130
0.090
0.045
0.015
0.000
0.025
0.030
0.000
-0.055
-0.075
-0.085
-0.085
-0.055
-0.060
-0.090
-0.140
-0.210
-0.305
-0.430
-0.575
-0.775
-0.955
-1.095
-1.210
-1.300
-1.370
-1.425
-1.435
-1.435
-1.455
-1.470
-1.510
-1.540
-1.560
-1.585
-1.570
-1.560
-1.550
-1.565
-1.595
-1.600
-1.605
-1.625
-1.635
-1.655
-1.655
-1.680
-1.670
-1.675
-1.695
-1.725
-1.735
-1.730
-1.740
-1.745
-1.745
-1.750
-1.755
-1.765
-1.760
-1.765
-1.785
-1.795
-1.815
-1.815
-1.825
-1.825
-1.835
-1.845
-1.855
-1.840
-1.815
-1.815
-1.830
-1.845
-1.820
-1.790
-1.765
-1.735
-1.745
-1.760
-1.760
-1.710
-1.685
-1.665
-1.665
-1.650
-1.625
-1.590
-1.530
-1.475
-1.455
-1.450
-1.440
-1.410
-1.360
-1.335
-1.340
-1.360
-1.350
-1.325
-1.300
-1.270
-1.255
-1.250
-1.230
-1.220
-1.210
-1.215
-1.225
-1.225
-1.230
-1.210
-1.200
-1.205
-1.210
-1.200
-1.200
-1.180
-1.170
-1.165
-1.185
-1.185
-1.190
-1.185
-1.155
-1.165
-1.165
-1.155
-1.170
-1.175
-1.160
-1.160
-1.170
-1.180
-1.175
-1.150
-1.130
-1.120
-1.125
-1.130
-1.140
-1.135
-1.110
-1.110
-1.110
-1.125
-1.120
-1.105
-1.100
-1.095
-1.100
-1.110
-1.125
-1.115
-1.080
-1.060
-1.075
-1.080
-1.085
-1.075
-1.060
-1.050
-1.060
-1.080
-1.080
-1.055
-1.065
-1.055
-1.055
-1.065
-1.065
-1.060
-1.045
-1.040
-1.035
-1.045
-1.055
-1.040
-1.025
-1.020
-1.020
-1.045
-1.050
-1.030
-1.010
-0.990
-0.980
-0.980
-0.965
-0.945
-0.925
-0.905
-0.910
-0.915
-0.890
-0.870
-0.870
-0.845
-0.840
-0.855
-0.860
-0.865
-0.845
-0.840
-0.855
-0.885
-0.900
-0.910
-0.925
-0.950
-0.970
-0.995
-1.015
-1.010
-0.995
-0.995
-1.020
-1.030
-1.025
-1.010
-1.020
-1.030
-1.030
-1.045
-1.030
-1.020
-1.010
-1.005
-1.020
-1.030
-1.035
-1.025
-1.010
-1.015
-1.020
-1.040
-1.030
-1.030
-1.000
-0.980
-0.925
-0.845
-0.710
-0.520
-0.270
0.005
0.260
0.455
0.555
0.490
0.245
-0.115
-0.495
-0.820
-0.955
-0.970
-0.970
-0.985
-1.010
-1.010
-0.975
-0.940
-0.945
-0.970
-1.000
-1.000
-0.985
-0.965
-0.950
-0.975
-0.980
-0.995
-0.995
-0.995
-0.970
-0.940
-0.945
-0.985
-0.980
-0.975
-0.980
-0.980
-0.965
-0.955
-0.950
-0.955
-0.940
-0.925
-0.905
-0.915
-0.910
-0.905
-0.900
-0.885
-0.890
-0.905
-0.905
-0.875
-0.870
-0.870
-0.870
-0.865
-0.850
-0.820
-0.800
-0.775
-0.785
-0.800
-0.815
-0.800
-0.755
-0.735
-0.730
-0.735
-0.740
-0.705
-0.670
-0.655
-0.660
-0.670
-0.675
-0.660
-0.635
-0.610
-0.590
-0.595
-0.595
-0.590
-0.570
-0.565
-0.580
-0.595
-0.585
-0.560
-0.520
-0.515
-0.510
-0.535
-0.560
-0.570
-0.575
-0.570
-0.575
-0.595
-0.625
-0.640
-0.605
-0.620
-0.655
-0.720
-0.745
-0.740
-0.710
-0.705
-0.745
-0.795
-0.825
-0.810
-0.820
-0.800
-0.825
-0.845
-0.875
-0.895
-0.875
-0.860
-0.860
-0.855
-0.840
-0.840
-0.860
-0.890
-0.895
-0.905
-0.875
-0.845
-0.840
-0.865
-0.890
-0.910
-0.910
-0.900
-0.885
-0.895
-0.875
-0.855
-0.870
-0.875
-0.875
-0.860
-0.850
-0.865
-0.850
-0.830
-0.815
-0.815
-0.835
-0.835
-0.845
-0.825
-0.810
-0.795
-0.795
-0.770
-0.750
-0.725
-0.710
-0.700
-0.715
-0.705
-0.710
-0.720
-0.700
-0.695
-0.700
-0.720
-0.715
-0.730
-0.735
-0.750
-0.780
-0.820
-0.815
-0.825
-0.825
-0.820
-0.835
-0.865
-0.870
-0.870
-0.875
-0.875
-0.875
-0.870
-0.870
-0.870
-0.875
-0.880
-0.875
-0.865
-0.865
-0.845
-0.845
-0.840
-0.850
-0.855
-0.860
-0.860
-0.880
-0.920
-0.940
-0.915
-0.825
-0.705
-0.550
-0.385
-0.215
0.000
0.265
0.510
0.690
0.740
0.605
0.265
-0.095
-0.405
-0.660
-0.795
-0.850
-0.870
-0.875
-0.880
-0.830
-0.810
-0.810
-0.830
-0.840
-0.830
-0.825
-0.830
-0.860
-0.910
-0.915
-0.900
-0.865
-0.830
-0.850
-0.870
-0.870
-0.850
-0.820
-0.815
-0.830
-0.845
-0.850
-0.830
-0.805
-0.785
-0.785
-0.780
-0.760
-0.745
-0.725
-0.730
-0.730
-0.730
-0.735
-0.715
-0.705
-0.680
-0.680
-0.690
-0.680
-0.635
-0.625
-0.620
-0.610
-0.580
-0.570
-0.545
-0.530
-0.520
-0.520
-0.530
-0.525
-0.485
-0.450
-0.440
-0.445
-0.445
-0.440
-0.410
-0.375
-0.360
-0.375
-0.385
-0.395
-0.365
-0.350
-0.355
-0.390
-0.440
-0.450
-0.460
-0.425
-0.400
-0.425
-0.445
-0.465
-0.470
-0.495
-0.490
-0.530
-0.550
-0.540
-0.535
-0.545
-0.580
-0.620
-0.645
-0.655
-0.650
-0.655
-0.655
-0.655
-0.665
-0.680
-0.685
-0.685
-0.700
-0.700
-0.715
-0.720
-0.710
-0.680
-0.675
-0.675
-0.685
-0.690
-0.675
-0.675
-0.655
-0.675
-0.680
-0.670
-0.660
-0.660
-0.665
-0.685
-0.700
-0.705
-0.700
-0.685
-0.695
-0.700
-0.690
-0.695
-0.680
-0.655
-0.645
-0.640
-0.625
-0.620
-0.615
-0.600
-0.570
-0.545
-0.525
-0.535
-0.520
-0.490
-0.455
-0.465
-0.485
-0.490
-0.465
-0.435
-0.425
-0.405
-0.380
-0.320
-0.270
-0.180
-0.120
-0.080
-0.045
0.025
0.120
0.195
0.280
0.345
0.415
0.490
0.570
0.650
0.730
0.800
0.825
0.790
0.730
0.675
0.660
0.630
0.570
0.520
0.490
0.475
0.445
0.385
0.345
0.285
0.255
0.260
0.255
0.210
0.140
0.060
-0.025
-0.135
-0.275
-0.480
-0.670
-0.800
-0.885
-0.945
-0.965
-0.990
-1.010
-1.050
-1.070
-1.065
-1.070
-1.105
-1.140
-1.175
-1.165
-1.155
-1.175
-1.180
-1.205
-1.225
-1.220
-1.225
-1.235
-1.260
-1.275
-1.295
-1.300
-1.290
-1.305
-1.345
-1.380
-1.410
-1.415
-1.385
-1.355
-1.380
-1.425
-1.445
-1.445
-1.425
-1.410
-1.435
-1.465
-1.470
-1.465
-1.460
-1.460
-1.455
-1.460
-1.475
-1.470
-1.465
-1.455
-1.465
-1.450
-1.415
-1.380
-1.360
-1.330
-1.315
-1.315
-1.295
-1.265
-1.220
-1.185
-1.165
-1.130
-1.115
-1.070
-1.010
-0.995
-0.970
-0.955
-0.945
-0.890
-0.860
-0.855
-0.835
-0.850
-0.840
-0.820
-0.800
-0.800
-0.815
-0.810
-0.810
-0.805
-0.790
-0.805
-0.820
-0.845
-0.830
-0.805
-0.795
-0.785
-0.800
-0.850
-0.875
-0.875
-0.850
-0.865
-0.875
-0.890
-0.900
-0.880
-0.870
-0.870
-0.870
-0.865
-0.830
-0.785
-0.735
-0.720
-0.730
-0.765
-0.775
-0.780
-0.795
-0.845
-0.905
-0.930
-0.910
-0.865
-0.825
-0.825
-0.850
-0.865
-0.825
-0.780
-0.720
-0.680
-0.660
-0.660
-0.640
-0.600
-0.570
-0.545
-0.535
-0.520
-0.515
-0.490
-0.495
-0.525
-0.550
-0.555
-0.560
-0.575
-0.610
-0.620
-0.625
-0.595
-0.555
-0.515
-0.495
-0.505
-0.500
-0.485
-0.505
-0.540
-0.600
-0.605
-0.575
-0.545
-0.520
-0.540
-0.560
-0.570
-0.595
-0.600
-0.610
-0.595
-0.610
-0.635
-0.665
-0.725
-0.800
-0.870
-0.920
-0.970
-1.015
